-0.3677
-0.38208
-0.38608
-0.3775
-0.38608
-0.42856
-0.45961
-0.43818
-0.40446
-0.40402
-0.40446
-0.37436
-0.3677
-0.42489
-0.47799
-0.45833
-0.40446
-0.36579
-0.31255
-0.21451
-0.091971
0.016604
0.055084
0.020259
0.036702
0.19706
0.40434
0.52052
0.51463
0.41597
0.27567
0.14549
-6.13e-05
-0.17939
-0.27579
-0.22579
-0.22064
-0.41806
-0.66181
-0.75998
-0.7721
-0.8069
-0.82725
-0.79865
-0.75372
-0.7534
-0.82725
-0.92192
-0.88239
-0.46221
0.47787
1.9081
3.8418
5.8065
6.3233
4.5237
1.5992
-0.77763
-2.1324
-2.6363
-2.5184
-2.1055
-1.5809
-1.0182
-0.64343
-0.58738
-0.66181
-0.66607
-0.62505
-0.62566
-0.62505
-0.57176
-0.51475
-0.4983
-0.49637
-0.47491
-0.45961
-0.47318
-0.47799
-0.43829
-0.38608
-0.35555
-0.31255
-0.22909
-0.1655
-0.16772
-0.1655
-0.09132
-6.13e-05
0.042288
0.073466
0.13964
0.20214
0.22504
0.25729
0.34291
0.4411
0.50375
0.5514
0.6141
0.68007
0.7306
0.77198
0.81172
0.84551
0.8677
0.88227
0.89374
0.90065
0.90065
0.90065
0.90122
0.88227
0.82769
0.7536
0.67659
0.58816
0.47738
0.34919
0.22075
0.12861
0.091401
0.073466
0.037191
-6.13e-05
-0.011664
-6.13e-05
0.017097
0.018321
-0.0072499
-0.036825
-0.044527
-0.036825
-0.029897
-0.018443
0.00051447
-6.13e-05
-0.033596
-0.055207
-0.029399
-6.13e-05
-0.01282
-0.036825
-0.032402
-0.018443
-0.023364
-0.036825
-0.045903
-0.073589
-0.1296
-0.1655
-0.14553
-0.11035
-0.11047
-0.14712
-0.19469
-0.22064
-0.20777
-0.18388
-0.18363
-0.20226
-0.22133
-0.23903
-0.25344
-0.25741
-0.24767
-0.22064
-0.1852
-0.18388
-0.23754
-0.29417
-0.3006
-0.27579
-0.2585
-0.25741
-0.26683
-0.27579
-0.27426
-0.27579
-0.29034
-0.29417
-0.2693
-0.23903
-0.2322
-0.25741
-0.30183
-0.33094
-0.32053
-0.29417
-0.28579
-0.29417
-0.3048
-0.33094
-0.37295
-0.3677
-0.28637
-0.23903
-0.31316
-0.40446
-0.39644
-0.34932
-0.34032
-0.31255
-0.20658
-0.055207
0.081396
0.14699
0.13843
0.16538
0.31281
0.49625
0.59768
0.60654
0.55467
0.45949
0.33966
0.18376
-0.004487
-0.12873
-0.13635
-0.1655
-0.33424
-0.53314
-0.62335
-0.64343
-0.67011
-0.68019
-0.65972
-0.64343
-0.6793
-0.7721
-0.85496
-0.79048
-0.37661
0.49625
1.792
3.4925
5.1851
5.6616
4.2019
1.7278
-0.42262
-1.8199
-2.5191
-2.6103
-2.3072
-1.8015
-1.2286
-0.80886
-0.65889
-0.62505
-0.5444
-0.45961
-0.46086
-0.49637
-0.49536
-0.47799
-0.47051
-0.45961
-0.42736
-0.38608
-0.34934
-0.31255
-0.27197
-0.23903
-0.22187
-0.22064
-0.2216
-0.18388
-0.089894
-6.13e-05
0.029573
0.036702
0.071497
0.11023
0.12409
0.14699
0.21131
0.29405
0.36693
0.4411
0.5297
0.62492
0.70835
0.7536
0.75277
0.7536
0.79555
0.84551
0.86152
0.86389
0.88231
0.90065
0.8976
0.90065
0.92048
0.88227
0.74306
0.60654
0.57113
0.58816
0.56821
0.49625
0.38983
0.25729
0.12452
0.055084
0.074716
0.11023
0.08734
0.036702
0.010726
-6.13e-05
-0.017778
-0.036825
-0.046696
-0.036825
-0.0068762
0.018321
0.017089
-6.13e-05
-0.013799
-0.018443
-0.016987
-0.018443
-0.027948
-0.036825
-0.034922
-0.018443
0.0044553
-6.13e-05
-0.048032
-0.091971
-0.090178
-0.073589
-0.084744
-0.12873
-0.18468
-0.20226
-0.15815
-0.12873
-0.17811
-0.23903
-0.23517
-0.20226
-0.19652
-0.22064
-0.25407
-0.25741
-0.21349
-0.20226
-0.27956
-0.33094
-0.26128
-0.20226
-0.27735
-0.3677
-0.34186
-0.27579
-0.27325
-0.31255
-0.33902
-0.33094
-0.29252
-0.27579
-0.31921
-0.3677
-0.3623
-0.34932
-0.37723
-0.38608
-0.32686
-0.27579
-0.30196
-0.34932
-0.34067
-0.27579
-0.18741
-0.091971
-0.0083345
0.036702
0.049673
0.073466
0.15657
0.34919
0.62327
0.79036
0.71271
0.51463
0.37017
0.25729
0.11401
-6.13e-05
-0.044703
-0.11035
-0.27134
-0.47799
-0.64304
-0.71695
-0.69778
-0.66181
-0.6841
-0.68019
-0.59964
-0.60666
-0.79177
-0.90077
-0.60877
0.12861
1.2217
2.6285
4.0835
4.963
4.7481
3.3822
1.2687
-0.84563
-2.2875
-2.886
-2.824
-2.3529
-1.7405
-1.1949
-0.80726
-0.60666
-0.56219
-0.5699
-0.55642
-0.53314
-0.5339
-0.53314
-0.499
-0.45961
-0.44119
-0.44123
-0.44003
-0.40446
-0.32379
-0.25741
-0.25247
-0.25741
-0.21295
-0.14712
-0.104
-0.073589
-0.035511
-6.13e-05
0.026335
0.073466
0.15792
0.2389
0.28049
0.31243
0.37322
0.45949
0.54971
0.62492
0.67394
0.71683
0.77228
0.80874
0.80473
0.82712
0.91995
0.99256
0.9618
0.90065
0.89528
0.90065
0.85701
0.80874
0.79783
0.77198
0.68226
0.56978
0.48486
0.42272
0.35867
0.27567
0.17321
0.091848
0.063227
0.055084
0.027746
-6.13e-05
-0.003299
-6.13e-05
-0.011169
-0.018443
-0.0066494
-6.13e-05
-0.018159
-0.036825
-0.029154
-6.13e-05
0.029243
0.036702
0.01047
-0.036825
-0.08015
-0.11035
-0.12265
-0.091971
-0.019192
0.018321
-0.03478
-0.11035
-0.13312
-0.14712
-0.20412
-0.25741
-0.25628
-0.22064
-0.19098
-0.20226
-0.25869
-0.29417
-0.25898
-0.22064
-0.24837
-0.29417
-0.29629
-0.27579
-0.27163
-0.29417
-0.33164
-0.34932
-0.32271
-0.27579
-0.2475
-0.25741
-0.30081
-0.34932
-0.37241
-0.3677
-0.34994
-0.33094
-0.3204
-0.33094
-0.36002
-0.3677
-0.32389
-0.27579
-0.25919
-0.18388
0.004193
0.16538
0.1801
0.12861
0.14497
0.29405
0.54188
0.71683
0.67761
0.49625
0.31562
0.16538
0.036559
-0.036825
-0.058627
-0.12873
-0.30895
-0.51475
-0.63907
-0.68019
-0.68199
-0.68019
-0.70525
-0.71695
-0.701
-0.75372
-0.90682
-0.95592
-0.64115
0.091848
1.1945
2.6285
4.1307
5.1469
5.1519
3.8601
1.5271
-0.88239
-2.436
-2.9779
-2.818
-2.2978
-1.7211
-1.2133
-0.78106
-0.53314
-0.52706
-0.58828
-0.56144
-0.49637
-0.4858
-0.49637
-0.47119
-0.44123
-0.4356
-0.42284
-0.37488
-0.33094
-0.32377
-0.31255
-0.25651
-0.18388
-0.13431
-0.11035
-0.09724
-0.073589
-0.027744
0.018321
0.044973
0.073466
0.13101
0.22052
0.32652
0.42272
0.48876
0.53301
0.57525
0.62492
0.68302
0.7536
0.82888
0.88227
0.89786
0.90065
0.92077
0.9558
0.99125
1.0293
1.0638
1.0661
1.0145
0.91903
0.80569
0.69845
0.61109
0.5514
0.5079
0.4411
0.32973
0.22052
0.16085
0.12861
0.088042
0.055084
0.045814
0.036702
0.0056668
-0.036825
-0.069965
-0.073589
-0.045021
-0.018443
-0.023605
-0.036825
-0.029201
-0.018443
-0.025677
-0.036825
-0.034072
-0.018443
-0.0012877
-6.13e-05
-0.022235
-0.055207
-0.079667
-0.073589
-0.038358
-0.036825
-0.10625
-0.1655
-0.14076
-0.091971
-0.09731
-0.14712
-0.19901
-0.22064
-0.20167
-0.18388
-0.20677
-0.23903
-0.24161
-0.23903
-0.25835
-0.27579
-0.26545
-0.23903
-0.21894
-0.22064
-0.24628
-0.27579
-0.28869
-0.29417
-0.30502
-0.31255
-0.30687
-0.29417
-0.28577
-0.29417
-0.32105
-0.34932
-0.35968
-0.34932
-0.32787
-0.31255
-0.31451
-0.33094
-0.34888
-0.34932
-0.32754
-0.31255
-0.32715
-0.34932
-0.34265
-0.29417
-0.20936
-0.091971
0.035253
0.11023
0.11005
0.11023
0.19092
0.34919
0.52332
0.62492
0.59472
0.45949
0.29131
0.12861
-0.0061916
-0.073589
-0.079977
-0.12873
-0.29132
-0.49637
-0.63932
-0.69857
-0.69816
-0.68019
-0.68827
-0.68019
-0.64191
-0.68019
-0.83768
-0.91916
-0.65381
0.055084
1.1947
2.7205
4.3289
5.4226
5.4394
4.0623
1.5723
-0.95592
-2.4959
-2.9044
-2.5733
-1.9302
-1.3375
-0.93754
-0.68745
-0.5699
-0.56218
-0.5699
-0.54351
-0.51475
-0.5229
-0.53314
-0.50267
-0.47799
-0.49522
-0.49637
-0.43014
-0.34932
-0.31523
-0.31255
-0.30305
-0.27579
-0.23309
-0.18388
-0.14052
-0.11035
-0.088842
-0.055207
0.0048635
0.073466
0.1294
0.18376
0.24917
0.31243
0.36081
0.40434
0.45833
0.53301
0.62546
0.71683
0.78627
0.82712
0.84584
0.86389
0.89384
0.91903
0.91963
0.90065
0.87653
0.86389
0.86435
0.84551
0.78116
0.69845
0.63048
0.56978
0.49863
0.42272
0.34955
0.27567
0.199
0.12861
0.073234
0.036702
0.015459
-6.13e-05
-0.018577
-0.036825
-0.049116
-0.055207
-0.057081
-0.055207
-0.049695
-0.036825
-0.016416
-6.13e-05
0.0030296
-6.13e-05
-0.00019344
-6.13e-05
-0.0053087
-0.018443
-0.038016
-0.055207
-0.06353
-0.073589
-0.093592
-0.11035
-0.11262
-0.11035
-0.11784
-0.14712
-0.19469
-0.22064
-0.20015
-0.18388
-0.21761
-0.25741
-0.25352
-0.23903
-0.25447
-0.27579
-0.27479
-0.27579
-0.30195
-0.33094
-0.33704
-0.33094
-0.32989
-0.33094
-0.32762
-0.33094
-0.346
-0.34932
-0.32607
-0.31255
-0.33801
-0.3677
-0.36353
-0.34932
-0.35579
-0.3677
-0.36497
-0.3677
-0.39121
-0.40446
-0.38335
-0.3677
-0.39266
-0.42284
-0.41843
-0.40446
-0.41186
-0.42284
-0.41523
-0.40446
-0.40688
-0.40446
-0.37828
-0.34932
-0.33053
-0.27579
-0.15925
-0.036825
0.033041
0.036702
0.016354
0.091848
0.31577
0.53301
0.57675
0.45949
0.28036
0.12861
0.055037
-6.13e-05
-0.10606
-0.18388
-0.17397
-0.23903
-0.49315
-0.73534
-0.76728
-0.71695
-0.75381
-0.79048
-0.73571
-0.68019
-0.7312
-0.82725
-0.82761
-0.64343
-0.1081
0.93741
2.4626
4.4484
6.3347
6.3785
3.7011
0.14699
-2.0633
-2.739
-2.6093
-2.1507
-1.7103
-1.3236
-0.86305
-0.53314
-0.52555
-0.62505
-0.60963
-0.55152
-0.57213
-0.60666
-0.5702
-0.51475
-0.49597
-0.47799
-0.42083
-0.3677
-0.35941
-0.34932
-0.29481
-0.25741
-0.28534
-0.29417
-0.20959
-0.11035
-0.081923
-0.073589
-0.017989
0.055084
0.10331
0.14699
0.2103
0.27567
0.32368
0.36758
0.42176
0.47787
0.52563
0.56978
0.6182
0.68007
0.7524
0.80874
0.82842
0.82712
0.82905
0.84551
0.8718
0.88227
0.85813
0.82712
0.81446
0.79036
0.72425
0.6433
0.57832
0.51463
0.43251
0.34919
0.28214
0.22052
0.15271
0.091848
0.052713
0.036702
0.035381
0.036702
0.030331
0.018321
0.0075819
-6.13e-05
-0.0047053
-6.13e-05
0.013522
0.018321
0.0024368
-0.018443
-0.024854
-0.018443
-0.0090004
-6.13e-05
0.0049044
-6.13e-05
-0.014943
-0.036825
-0.058295
-0.055207
-0.022757
-0.018443
-0.080987
-0.14712
-0.15147
-0.12873
-0.13043
-0.14712
-0.15415
-0.14712
-0.1323
-0.12873
-0.15032
-0.18388
-0.20874
-0.22064
-0.22354
-0.22064
-0.21615
-0.22064
-0.23624
-0.23903
-0.21461
-0.20226
-0.23167
-0.25741
-0.23562
-0.20226
-0.20235
-0.22064
-0.22892
-0.23903
-0.26054
-0.25741
-0.21082
-0.18388
-0.22525
-0.27579
-0.26972
-0.23903
-0.23287
-0.23903
-0.23529
-0.23903
-0.26233
-0.27579
-0.25709
-0.23903
-0.25367
-0.27579
-0.27536
-0.27579
-0.30032
-0.31255
-0.28238
-0.25741
-0.27192
-0.25741
-0.15605
-0.018443
0.082323
0.12861
0.14611
0.18376
0.28195
0.4411
0.6123
0.69845
0.63587
0.47787
0.31439
0.14699
-0.027757
-0.11035
-0.061
-0.055207
-0.23565
-0.47799
-0.61319
-0.66181
-0.69594
-0.69857
-0.66648
-0.64343
-0.67604
-0.75372
-0.80418
-0.71695
-0.32494
0.47787
1.6702
3.2351
4.7937
5.2388
3.9079
1.6543
-0.30409
-1.636
-2.4196
-2.6471
-2.4192
-1.9302
-1.3607
-0.91916
-0.71746
-0.66181
-0.62389
-0.58828
-0.5819
-0.5699
-0.52483
-0.47799
-0.45786
-0.45961
-0.46135
-0.45961
-0.45051
-0.40446
-0.31498
-0.25741
-0.28013
-0.29417
-0.21531
-0.11035
-0.064977
-0.055207
-0.033202
-6.13e-05
0.031357
0.055084
0.073382
0.11023
0.18289
0.27567
0.36148
0.42272
0.4585
0.49625
0.55819
0.62492
0.66825
0.69845
0.7289
0.73521
0.70543
0.69845
0.75573
0.80874
0.79252
0.77198
0.80806
0.82712
0.75503
0.6433
0.56294
0.51463
0.47327
0.42272
0.35636
0.29405
0.25372
0.22052
0.17245
0.11023
0.047496
-6.13e-05
-0.020424
-6.13e-05
0.051107
0.073466
0.029473
-0.018443
-0.0079279
0.018321
0.0057118
-0.018443
-0.016568
-6.13e-05
0.0087801
-6.13e-05
-0.023184
-0.036825
-0.02369
-6.13e-05
0.0069226
-0.018443
-0.072994
-0.12873
-0.15773
-0.1655
-0.16939
-0.1655
-0.15309
-0.1655
-0.21771
-0.25741
-0.24
-0.20226
-0.19179
-0.20226
-0.21038
-0.20226
-0.18004
-0.18388
-0.23898
-0.29417
-0.29553
-0.27579
-0.27654
-0.25741
-0.1912
-0.1655
-0.24379
-0.33094
-0.32777
-0.29417
-0.30766
-0.31255
-0.25413
-0.22064
-0.28269
-0.33094
-0.26912
-0.22064
-0.29861
-0.3677
-0.29743
-0.22064
-0.27489
-0.34932
-0.31918
-0.27579
-0.31907
-0.3677
-0.33351
-0.27579
-0.27038
-0.29417
-0.30148
-0.29417
-0.27629
-0.22064
-0.11852
-6.13e-05
0.095958
0.12861
0.10822
0.14699
0.32032
0.53301
0.6511
0.6433
0.53837
0.36758
0.18141
0.036702
-0.046181
-0.091971
-0.14763
-0.27579
-0.48181
-0.64343
-0.66047
-0.62505
-0.65449
-0.68019
-0.64167
-0.64343
-0.76918
-0.88239
-0.79119
-0.44123
0.22952
1.2683
2.5938
4.191
5.6416
5.5513
3.2157
0.16538
-1.7891
-2.5735
-2.7944
-2.6471
-2.2496
-1.7096
-1.0908
-0.66181
-0.60433
-0.66181
-0.56933
-0.44123
-0.45139
-0.49637
-0.44697
-0.38608
-0.40047
-0.42284
-0.3769
-0.31255
-0.28954
-0.27579
-0.23112
-0.18388
-0.16438
-0.14712
-0.1041
-0.055207
-0.021879
0.018321
0.084155
0.14699
0.17926
0.20214
0.24341
0.29405
0.34028
0.40434
0.49718
0.56978
0.58629
0.60654
0.68324
0.7536
0.75505
0.7536
0.8128
0.86389
0.83981
0.80874
0.83963
0.88227
0.87274
0.82712
0.78162
0.7536
0.73894
0.69845
0.60409
0.49625
0.42033
0.36758
0.31106
0.2389
0.15508
0.091848
0.072761
0.073466
0.060174
0.036702
0.016974
-6.13e-05
-0.015534
-0.018443
-0.0037525
0.018321
0.034418
0.036702
0.025423
0.018321
0.025956
0.018321
-0.023755
-0.055207
-0.036819
-6.13e-05
0.0094505
-0.018443
-0.069426
-0.11035
-0.11658
-0.11035
-0.11948
-0.12873
-0.11991
-0.11035
-0.12001
-0.14712
-0.17941
-0.20226
-0.20682
-0.20226
-0.20125
-0.20226
-0.20043
-0.20226
-0.21212
-0.22064
-0.2196
-0.22064
-0.23324
-0.23903
-0.22453
-0.22064
-0.25004
-0.27579
-0.26258
-0.23903
-0.24063
-0.25741
-0.26882
-0.27579
-0.28332
-0.29417
-0.30719
-0.31255
-0.30425
-0.29417
-0.29553
-0.31255
-0.33738
-0.34932
-0.33598
-0.31255
-0.30141
-0.31255
-0.33836
-0.34932
-0.31891
-0.25741
-0.18561
-0.091971
0.02404
0.11023
0.13679
0.14699
0.20043
0.33081
0.51211
0.62492
0.5765
0.42272
0.26731
0.12861
0.001326
-0.073589
-0.091097
-0.14712
-0.31043
-0.51475
-0.66209
-0.73534
-0.75437
-0.73534
-0.71124
-0.68019
-0.6621
-0.73534
-0.89474
-0.93754
-0.59631
0.22052
1.4568
3.0513
4.6469
5.3858
4.6772
2.8491
0.67918
-1.1949
-2.3704
-2.7573
-2.5522
-2.0404
-1.4787
-1.0294
-0.73775
-0.58828
-0.53914
-0.53314
-0.53831
-0.53314
-0.51439
-0.49637
-0.48558
-0.47799
-0.45919
-0.42284
-0.37059
-0.31255
-0.26263
-0.23903
-0.24279
-0.23903
-0.19956
-0.14712
-0.11309
-0.091971
-0.066767
-0.036825
-0.0016989
0.055084
0.13897
0.22052
0.27581
0.33081
0.41149
0.49625
0.55805
0.60654
0.65889
0.71683
0.77364
0.82712
0.87017
0.88227
0.85927
0.84551
0.87527
0.91903
0.93391
0.91903
0.88781
0.84551
0.79444
0.73521
0.66556
0.58816
0.50587
0.42272
0.34099
0.25729
0.17326
0.11023
0.081574
0.073466
0.063045
0.036702
-0.0054752
-0.036825
-0.038228
-0.036825
-0.058502
-0.073589
-0.052442
-0.018443
-0.0027085
-6.13e-05
0.0026558
-6.13e-05
-0.011725
-0.018443
-0.011052
-6.13e-05
0.00066127
-0.018443
-0.0539
-0.073589
-0.058761
-0.055207
-0.10041
-0.14712
-0.14613
-0.12873
-0.13763
-0.1655
-0.1903
-0.20226
-0.201
-0.20226
-0.21866
-0.23903
-0.2472
-0.23903
-0.22165
-0.22064
-0.24972
-0.27579
-0.26842
-0.25741
-0.27451
-0.29417
-0.2868
-0.27579
-0.28635
-0.29417
-0.27788
-0.27579
-0.31603
-0.34932
-0.32877
-0.29417
-0.29206
-0.29417
-0.26908
-0.25741
-0.29352
-0.33094
-0.32327
-0.31255
-0.33953
-0.34932
-0.29674
-0.25741
-0.29819
-0.34932
-0.33648
-0.31255
-0.33821
-0.3677
-0.34463
-0.29417
-0.25013
-0.18388
-0.077879
0.018321
0.06385
0.073466
0.095706
0.20214
0.40633
0.58816
0.62736
0.53301
0.38037
0.2389
0.14946
0.073466
-0.037065
-0.12873
-0.15958
-0.23903
-0.44219
-0.62505
-0.65123
-0.62505
-0.67427
-0.71695
-0.67481
-0.62505
-0.66153
-0.73534
-0.71671
-0.49637
0.094351
1.158
2.6164
4.4667
6.2051
6.1579
3.4849
-6.13e-05
-2.1342
-2.7573
-2.6034
-2.1324
-1.6725
-1.2684
-0.8069
-0.47799
-0.45957
-0.55152
-0.54469
-0.49637
-0.51224
-0.53314
-0.48777
-0.44123
-0.45149
-0.45961
-0.40627
-0.34932
-0.34779
-0.34932
-0.29718
-0.23903
-0.22402
-0.20226
-0.12717
-0.055207
-0.040883
-0.036825
0.011028
0.073466
0.11203
0.14699
0.20471
0.27567
0.34253
0.40434
0.46305
0.51463
0.5578
0.60654
0.66698
0.71683
0.73775
0.7536
0.78873
0.82712
0.8473
0.86389
0.88977
0.90065
0.87628
0.84551
0.83309
0.80874
0.74203
0.66169
0.59847
0.53301
0.44303
0.34919
0.27585
0.22052
0.17166
0.12861
0.091462
0.055084
0.018802
-6.13e-05
0.0075894
0.018321
0.0098304
-6.13e-05
0.0081528
0.018321
0.01175
-6.13e-05
-0.0020829
-6.13e-05
-0.0018338
-6.13e-05
0.010424
0.018321
0.013544
-6.13e-05
-0.013799
-0.018443
-0.01257
-0.018443
-0.049827
-0.073589
-0.063084
-0.055207
-0.086345
-0.12873
-0.14537
-0.14712
-0.15205
-0.14712
-0.12433
-0.11035
-0.12815
-0.1655
-0.19883
-0.22064
-0.22996
-0.22064
-0.19626
-0.18388
-0.19946
-0.22064
-0.22106
-0.20226
-0.18158
-0.18388
-0.21906
-0.25741
-0.26622
-0.25741
-0.25244
-0.23903
-0.20905
-0.20226
-0.24218
-0.27579
-0.25516
-0.22064
-0.22203
-0.23903
-0.23871
-0.23903
-0.25759
-0.25741
-0.21568
-0.20226
-0.2652
-0.31255
-0.26305
-0.20226
-0.22455
-0.27579
-0.28208
-0.27579
-0.29871
-0.31255
-0.27998
-0.23903
-0.22254
-0.18388
-0.085121
0.036702
0.13052
0.16538
0.15938
0.22052
0.41033
0.60654
0.66918
0.60654
0.48923
0.36758
0.27191
0.16538
0.016905
-0.073589
-0.048771
-0.091971
-0.3404
-0.60666
-0.68269
-0.64343
-0.62895
-0.62505
-0.60334
-0.58828
-0.61515
-0.68019
-0.71887
-0.60666
-0.15052
0.73521
1.9951
3.6947
5.4327
5.6983
3.64
0.69845
-1.319
-2.2427
-2.5732
-2.4816
-2.1121
-1.6177
-1.079
-0.68019
-0.54677
-0.55152
-0.54261
-0.53314
-0.57011
-0.5699
-0.47315
-0.40446
-0.4595
-0.51475
-0.44432
-0.34932
-0.34692
-0.3677
-0.32278
-0.25741
-0.23154
-0.22064
-0.18812
-0.14712
-0.11534
-0.073589
-0.0094938
0.036702
0.038592
0.055084
0.1354
0.22052
0.25055
0.27567
0.35171
0.4411
0.49478
0.53301
0.58331
0.62492
0.6397
0.66169
0.71737
0.77198
0.78795
0.79036
0.80743
0.80874
0.76954
0.73521
0.74263
0.7536
0.71931
0.6433
0.55076
0.45949
0.38258
0.33081
0.29764
0.25729
0.19109
0.11023
0.03825
-6.13e-05
0.00010836
-6.13e-05
-0.031809
-0.055207
-0.031567
-6.13e-05
-0.0043564
-0.018443
-0.010854
-6.13e-05
-0.010322
-0.036825
-0.063153
-0.073589
-0.060633
-0.036825
-0.020866
-0.018443
-0.028759
-0.055207
-0.093816
-0.12873
-0.1473
-0.14712
-0.13741
-0.14712
-0.18922
-0.22064
-0.2043
-0.18388
-0.20425
-0.22064
-0.19272
-0.18388
-0.24622
-0.31255
-0.31111
-0.27579
-0.25992
-0.25741
-0.24868
-0.23903
-0.23587
-0.23903
-0.24636
-0.25741
-0.27
-0.27579
-0.27116
-0.27579
-0.2999
-0.31255
-0.28897
-0.25741
-0.25259
-0.27579
-0.30962
-0.33094
-0.32542
-0.31255
-0.31328
-0.31255
-0.29339
-0.27579
-0.28004
-0.29417
-0.30173
-0.31255
-0.33501
-0.34932
-0.34102
-0.33094
-0.33811
-0.34932
-0.33971
-0.29417
-0.21305
-0.11035
-0.012383
0.055084
0.091389
0.11023
0.14785
0.29405
0.55787
0.73521
0.65843
0.4411
0.26663
0.14699
0.040949
-0.018443
-0.029541
-0.11035
-0.32806
-0.55152
-0.64409
-0.66181
-0.69893
-0.73534
-0.73862
-0.69857
-0.64743
-0.66181
-0.74747
-0.75372
-0.44256
0.33081
1.5451
3.0881
4.5458
5.0182
3.9822
2.0587
0.1929
-1.2684
-2.2694
-2.7206
-2.6589
-2.2427
-1.6588
-1.1214
-0.77272
-0.60666
-0.55347
-0.55152
-0.56405
-0.5699
-0.56722
-0.55152
-0.51874
-0.49637
-0.49575
-0.47799
-0.41368
-0.34932
-0.33024
-0.33094
-0.30997
-0.25741
-0.18437
-0.12873
-0.11419
-0.091971
-0.021336
0.036702
0.028735
0.018321
0.073828
0.16538
0.24089
0.29405
0.33676
0.38596
0.45149
0.51463
0.55555
0.58816
0.6301
0.68007
0.72629
0.7536
0.75602
0.7536
0.76606
0.79036
0.81005
0.80874
0.77963
0.73521
0.69241
0.66169
0.63652
0.58816
0.49715
0.38596
0.28865
0.22052
0.178
0.14699
0.10931
0.055084
-0.0083593
-0.055207
-0.065546
-0.036825
0.0088356
0.018321
-0.034192
-0.091971
-0.095646
-0.055207
-0.012789
-0.018443
-0.086282
-0.12873
-0.078907
-0.036825
-0.096937
-0.1655
-0.14139
-0.091971
-0.103
-0.14712
-0.1707
-0.1655
-0.14446
-0.12873
-0.13976
-0.18388
-0.24559
-0.29417
-0.30487
-0.27579
-0.22764
-0.20226
-0.22203
-0.25741
-0.27074
-0.25741
-0.23754
-0.25741
-0.33623
-0.40446
-0.39832
-0.3677
-0.37387
-0.38608
-0.36335
-0.33094
-0.32081
-0.33094
-0.34601
-0.34932
-0.33639
-0.33094
-0.35385
-0.40446
-0.4581
-0.45961
-0.38522
-0.31255
-0.31444
-0.34932
-0.35625
-0.34932
-0.35911
-0.38608
-0.41175
-0.40446
-0.34005
-0.22064
-0.077873
0.036702
0.095076
0.11023
0.1298
0.2389
0.45564
0.62492
0.60728
0.47787
0.36183
0.2389
0.074352
-0.055207
-0.099135
-0.14712
-0.28306
-0.45961
-0.59655
-0.68019
-0.72253
-0.73534
-0.74082
-0.71695
-0.67212
-0.69857
-0.82327
-0.86401
-0.57916
0.091848
1.1188
2.4999
3.9912
4.9814
4.9149
3.6212
1.4359
-0.80886
-2.3254
-2.9228
-2.8212
-2.3346
-1.7678
-1.2684
-0.86334
-0.62505
-0.58029
-0.60666
-0.59631
-0.55152
-0.51404
-0.49637
-0.48815
-0.45961
-0.39257
-0.34932
-0.37596
-0.40446
-0.36324
-0.29417
-0.25443
-0.22064
-0.16328
-0.11035
-0.089544
-0.091971
-0.093141
-0.055207
0.034237
0.11023
0.12369
0.14699
0.24897
0.36758
0.42772
0.45949
0.51076
0.56978
0.61548
0.66169
0.7195
0.77198
0.80338
0.82712
0.85646
0.88227
0.89122
0.88227
0.86163
0.84551
0.84098
0.82712
0.78197
0.71683
0.64835
0.56978
0.47489
0.38596
0.31915
0.25729
0.18303
0.11023
0.058678
0.036702
0.037029
0.036702
0.016379
-0.018443
-0.049069
-0.055207
-0.031794
-6.13e-05
0.012998
-6.13e-05
-0.028798
-0.055207
-0.062059
-0.036825
0.011373
0.036702
0.0087204
-0.036825
-0.055423
-0.055207
-0.059933
-0.073589
-0.092318
-0.11035
-0.1214
-0.12873
-0.13789
-0.14712
-0.15437
-0.1655
-0.1837
-0.20226
-0.21414
-0.22064
-0.22655
-0.23903
-0.25973
-0.27579
-0.27666
-0.27579
-0.28559
-0.29417
-0.28837
-0.27579
-0.26905
-0.27579
-0.29456
-0.31255
-0.31783
-0.31255
-0.30601
-0.31255
-0.33501
-0.34932
-0.33561
-0.31255
-0.30447
-0.31255
-0.32548
-0.33094
-0.32248
-0.31255
-0.31621
-0.33094
-0.34807
-0.3677
-0.38592
-0.38608
-0.35401
-0.29417
-0.21942
-0.12873
-0.030136
0.036702
0.056879
0.073466
0.14154
0.29405
0.50192
0.6433
0.61869
0.45949
0.26294
0.091848
-0.021949
-0.055207
-0.041098
-0.11035
-0.33213
-0.5699
-0.67368
-0.68019
-0.68063
-0.69857
-0.73234
-0.71695
-0.6395
-0.64343
-0.79757
-0.88239
-0.58483
0.20214
1.4272
3.0146
4.5997
5.3858
4.8044
3.0513
0.80361
-1.1949
-2.4044
-2.739
-2.4589
-1.8934
-1.3272
-0.91916
-0.68553
-0.58828
-0.57186
-0.5699
-0.55617
-0.53314
-0.51356
-0.49637
-0.47021
-0.44123
-0.41341
-0.38608
-0.35834
-0.33094
-0.30567
-0.29417
-0.29595
-0.27579
-0.20934
-0.12873
-0.072638
-0.036825
-0.0026116
0.036702
0.081688
0.12861
0.17335
0.22052
0.27691
0.34919
0.43526
0.51463
0.5715
0.62492
0.69215
0.7536
0.7875
0.80874
0.83609
0.86389
0.88241
0.90065
0.92377
0.93741
0.92734
0.90065
0.86782
0.82712
0.77426
0.71683
0.65874
0.58816
0.49693
0.40434
0.32811
0.25729
0.1792
0.11023
0.065446
0.036702
0.010219
-0.018443
-0.046117
-0.055207
-0.037657
-0.018443
-0.022279
-0.036825
-0.041459
-0.036825
-0.030124
-0.018443
-0.0028332
-6.13e-05
-0.018313
-0.036825
-0.034519
-0.018443
-0.0049572
-6.13e-05
-0.0043862
-0.018443
-0.038492
-0.055207
-0.063156
-0.073589
-0.095416
-0.11035
-0.1052
-0.11035
-0.14849
-0.18388
-0.18106
-0.1655
-0.17085
-0.18388
-0.1866
-0.20226
-0.24587
-0.27579
-0.25848
-0.23903
-0.26058
-0.27579
-0.24113
-0.22064
-0.26829
-0.31255
-0.28345
-0.23903
-0.24805
-0.27579
-0.27454
-0.27579
-0.30957
-0.33094
-0.30268
-0.27579
-0.29901
-0.33094
-0.32368
-0.31255
-0.33501
-0.34932
-0.31746
-0.29417
-0.3267
-0.34932
-0.30572
-0.27579
-0.32987
-0.38608
-0.35329
-0.27579
-0.21827
-0.14712
-0.034991
0.055084
0.074862
0.055084
0.063773
0.18376
0.42206
0.62492
0.64663
0.51463
0.33531
0.18376
0.095809
0.036702
-0.046778
-0.12873
-0.18287
-0.29417
-0.50777
-0.68019
-0.68831
-0.64343
-0.67984
-0.71695
-0.6753
-0.64343
-0.71288
-0.79048
-0.71639
-0.42284
0.20853
1.2867
2.749
4.577
6.2513
6.1027
3.3185
-0.23903
-2.3682
-2.9044
-2.618
-2.0404
-1.5546
-1.1949
-0.80325
-0.53314
-0.54128
-0.62505
-0.59059
-0.51475
-0.51563
-0.53314
-0.48767
-0.44123
-0.45184
-0.45961
-0.40542
-0.34932
-0.35004
-0.34932
-0.28777
-0.22064
-0.20687
-0.20226
-0.15676
-0.11035
-0.10387
-0.091971
-0.030461
0.036702
0.066788
0.11023
0.21112
0.31243
0.35759
0.38596
0.44788
0.53301
0.61031
0.66169
0.68319
0.69845
0.7306
0.77198
0.80534
0.82712
0.84108
0.86389
0.90135
0.91903
0.88866
0.84551
0.82378
0.79036
0.71175
0.62492
0.56771
0.51463
0.43453
0.34919
0.28283
0.22052
0.14542
0.073466
0.024702
-6.13e-05
-0.0088877
-6.13e-05
0.019821
0.018321
-0.021331
-0.055207
-0.043201
-0.018443
-0.020335
-0.018443
0.015513
0.036702
0.0058787
-0.036825
-0.044527
-0.036825
-0.041282
-0.036825
-0.0069355
0.018321
0.008498
-0.036825
-0.096341
-0.12873
-0.11254
-0.091971
-0.11189
-0.14712
-0.16071
-0.1655
-0.18178
-0.20226
-0.21521
-0.22064
-0.22152
-0.22064
-0.21973
-0.22064
-0.22348
-0.22064
-0.20994
-0.22064
-0.26737
-0.29417
-0.26055
-0.23903
-0.29242
-0.34932
-0.33321
-0.29417
-0.29683
-0.31255
-0.30175
-0.29417
-0.31674
-0.33094
-0.30425
-0.27579
-0.28512
-0.31255
-0.3244
-0.31255
-0.28682
-0.27579
-0.29731
-0.33094
-0.34611
-0.33094
-0.29543
-0.27579
-0.29765
-0.33094
-0.33286
-0.31255
-0.28108
-0.18388
-0.0051474
0.14699
0.18494
0.14699
0.1336
0.25729
0.53259
0.77198
0.79164
0.62492
0.40275
0.20214
0.064727
-6.13e-05
-0.028618
-0.073589
-0.17114
-0.33094
-0.51981
-0.66181
-0.70338
-0.68019
-0.65838
-0.62505
-0.58033
-0.60666
-0.73644
-0.80886
-0.62721
-0.1655
0.58207
1.6543
2.9444
4.2645
5.1686
4.6873
2.4582
-0.27579
-2.0758
-2.7573
-2.7449
-2.3529
-1.8561
-1.3787
-0.9246
-0.62505
-0.56745
-0.60666
-0.59455
-0.53314
-0.48177
-0.45961
-0.46152
-0.47799
-0.48377
-0.45961
-0.40482
-0.34932
-0.321
-0.31255
-0.30012
-0.27579
-0.23604
-0.1655
-0.069104
-6.13e-05
0.0044034
-0.018443
-0.016762
0.018321
0.07404
0.12861
0.17082
0.2389
0.35571
0.45949
0.49469
0.49625
0.51936
0.58816
0.68984
0.7536
0.73277
0.71683
0.78649
0.84551
0.80309
0.77198
0.85416
0.93741
0.9011
0.80874
0.75563
0.73521
0.70893
0.66169
0.58683
0.49625
0.40622
0.31243
0.21256
0.12861
0.079804
0.073466
0.094786
0.091848
0.034626
-0.018443
-0.011766
0.018321
0.020651
-6.13e-05
-0.018243
-6.13e-05
0.061761
0.091848
0.036311
-0.018443
0.010169
0.055084
0.035303
-0.018443
-0.047403
-0.036825
0.001257
0.036702
0.038135
-6.13e-05
-0.05861
-0.11035
-0.13231
-0.11035
-0.058931
-0.036825
-0.081011
-0.14712
-0.17714
-0.1655
-0.13565
-0.12873
-0.16453
-0.18388
-0.14166
-0.11035
-0.15863
-0.23903
-0.27754
-0.25741
-0.20006
-0.14712
-0.13739
-0.18388
-0.26343
-0.31255
-0.29223
-0.25741
-0.26756
-0.29417
-0.29067
-0.25741
-0.21554
-0.20226
-0.23445
-0.25741
-0.22806
-0.20226
-0.23859
-0.31255
-0.37008
-0.3677
-0.29613
-0.22064
-0.19687
-0.1655
-0.068565
0.036702
0.0902
0.11023
0.15076
0.29405
0.55112
0.73521
0.69413
0.56978
0.52934
0.45949
0.24441
0.036702
-0.02077
-0.036825
-0.15057
-0.34932
-0.55201
-0.68019
-0.69465
-0.64343
-0.61118
-0.62505
-0.68311
-0.75372
-0.79054
-0.73534
-0.50718
-0.055207
0.69096
1.8197
3.2143
4.5035
5.1483
4.4851
2.399
-0.14712
-2.028
-2.9228
-3.0213
-2.6287
-2.0867
-1.5625
-1.0887
-0.7721
-0.66834
-0.64343
-0.58312
-0.55152
-0.61458
-0.64343
-0.52725
-0.38608
-0.35441
-0.40446
-0.45225
-0.45961
-0.42124
-0.3677
-0.33447
-0.33094
-0.33442
-0.27579
-0.1302
-0.018443
-0.040932
-0.11035
-0.10777
-0.036825
0.051938
0.12861
0.17899
0.22052
0.27868
0.34919
0.41716
0.47787
0.53106
0.58816
0.65262
0.69845
0.70701
0.69845
0.70038
0.73521
0.79487
0.80874
0.73738
0.66169
0.66447
0.73521
0.80693
0.77198
0.59066
0.42272
0.40578
0.42272
0.32647
0.16538
0.039775
-0.018443
-0.019887
-0.018443
-0.06194
-0.11035
-0.11363
-0.11035
-0.14185
-0.14712
-0.082252
-0.055207
-0.14496
-0.20226
-0.10328
-0.018443
-0.10949
-0.22064
-0.18205
-0.11035
-0.14459
-0.20226
-0.17994
-0.12873
-0.12116
-0.14712
-0.17713
-0.20226
-0.22173
-0.25741
-0.31753
-0.34932
-0.31656
-0.27579
-0.28924
-0.34932
-0.41386
-0.44123
-0.41496
-0.3677
-0.34212
-0.3677
-0.43528
-0.44123
-0.33101
-0.29417
-0.46482
-0.58828
-0.44293
-0.27579
-0.35312
-0.51475
-0.53923
-0.49637
-0.49269
-0.45961
-0.32939
-0.14712
0.0099297
0.073466
0.03978
0.018321
0.10986
0.29405
0.47741
0.53301
0.40293
0.22052
0.1256
0.018321
-0.20116
-0.3677
-0.34997
-0.33094
-0.49512
-0.75372
-0.94165
-1.0111
-0.98107
-0.88239
-0.79147
-0.7721
-0.84426
-0.9743
-1.0273
-0.73534
0.12705
1.3602
2.6557
4.2645
5.985
6.066
3.468
-0.073589
-2.3972
-3.272
-3.3258
-2.9779
-2.5546
-2.0772
-1.4472
-0.95592
-0.85821
-0.90077
-0.8042
-0.68019
-0.68983
-0.68019
-0.51821
-0.42284
-0.56469
-0.73534
-0.70514
-0.53314
-0.38131
-0.38608
-0.55904
-0.66181
-0.49392
-0.20226
-0.022237
-6.13e-05
-0.07995
-0.18388
-0.22333
-0.18388
-0.09604
0.091848
0.36462
0.4411
0.17724
-0.018443
0.21642
0.56978
0.65361
0.66169
0.83675
0.91903
0.69708
0.53301
0.74052
0.99256
0.93305
0.79036
0.84828
0.91903
0.793
0.66169
0.70568
0.73521
0.55835
0.29405
0.11948
0.073466
0.10609
0.073466
-0.10922
-0.25741
-0.20857
-0.14712
-0.27003
-0.44123
-0.48483
-0.47799
-0.5269
-0.53314
-0.42012
-0.3677
-0.49762
-0.5699
-0.37973
-0.12873
-0.070502
-0.18388
-0.33408
-0.42284
-0.40511
-0.31255
-0.22252
-0.25741
-0.43579
-0.45961
-0.14845
0.036702
-0.28372
-0.60666
-0.43145
-0.22064
-0.45049
-0.64343
-0.34556
-0.036825
-0.22123
-0.64343
-0.87618
-0.80886
-0.53214
-0.31255
-0.36201
-0.49637
-0.478
-0.45961
-0.5981
-0.64343
-0.39291
-0.12873
-0.13244
-0.18388
-0.034909
0.073466
-0.065407
-0.11035
0.21963
0.58816
0.61101
0.38596
0.15748
-0.036825
-0.20808
-0.23903
-0.11377
-0.18388
-0.64171
-0.95592
-0.70082
-0.40446
-0.6234
-1.0662
-1.2658
-1.1397
-0.84995
-0.68019
-0.81118
-1.0294
-0.91223
-0.25741
0.97285
2.8675
5.0258
6.1579
5.3297
3.0513
0.44633
-1.6912
-2.9424
-3.4007
-3.3778
-2.7757
-1.6262
-0.71695
-0.63358
-1.0111
-1.2371
-0.95592
-0.24989
0.073466
-0.52018
-1.1397
-0.8752
-0.31255
-0.25187
-0.47799
-0.54687
-0.44123
-0.27096
-0.14712
-0.14942
-0.1655
-0.080799
-0.018443
-0.093843
-0.20226
-0.20615
-0.055207
0.19253
0.31243
0.18124
0.036702
0.13749
0.45949
0.8129
0.9558
0.79472
0.56978
0.57068
0.86389
1.2998
1.544
1.3856
1.0477
0.86285
0.91903
1.1237
1.2867
1.2566
1.0845
0.91283
0.84551
0.88397
0.84551
0.5874
0.29405
0.17584
0.11023
-0.036498
-0.073589
0.13497
0.34919
0.30875
0.055084
-0.23939
-0.45961
-0.53444
-0.40446
-0.12903
0.036702
-0.068932
-0.23903
-0.23196
-0.11035
-0.020034
-0.018443
-0.090671
-0.036825
0.23603
0.29405
-0.14824
-0.49637
-0.21402
0.22052
0.22518
0.036702
0.02221
0.018321
-0.15484
-0.29417
-0.21156
0.018321
0.21753
0.14699
-0.24399
-0.49637
-0.26357
0.018321
-0.11726
-0.40446
-0.45238
-0.29417
-0.10205
-0.018443
-0.091612
-0.073589
0.21394
0.42272
0.25237
0.055084
0.20703
0.47787
0.55553
0.5514
0.6213
0.6433
0.49544
0.2389
-0.0074997
-0.12873
-0.099307
-0.11035
-0.31377
-0.53314
-0.57587
-0.5699
-0.66922
-0.79048
-0.82923
-0.75372
-0.63422
-0.69857
-1.0174
-1.1581
-0.65133
0.36758
1.621
3.2719
5.1569
6.1946
5.4973
3.2719
0.41946
-1.9669
-3.1348
-3.1985
-2.7266
-2.114
-1.5695
-1.1581
-0.82934
-0.5699
-0.4123
-0.40446
-0.54204
-0.60666
-0.44878
-0.29417
-0.3635
-0.51475
-0.53591
-0.44123
-0.32194
-0.22064
-0.1626
-0.1655
-0.20569
-0.20226
-0.11036
-0.018443
-0.011538
-0.018443
0.044761
0.12861
0.17004
0.20214
0.2711
0.36758
0.46625
0.56978
0.6737
0.73521
0.73855
0.7536
0.84041
0.97418
1.092
1.1396
1.1068
1.0661
1.0887
1.158
1.2168
1.2315
1.1912
1.1029
0.99347
0.91903
0.89611
0.82712
0.64352
0.45949
0.3881
0.36758
0.29716
0.16538
0.0088798
-0.11035
-0.14679
-0.12873
-0.109
-0.091971
-0.071998
-0.073589
-0.11125
-0.14712
-0.15073
-0.1655
-0.22144
-0.23903
-0.15673
-0.055207
-0.023705
-0.036825
-0.038783
-0.018443
0.010538
0.018321
-0.015694
-0.073589
-0.12041
-0.12873
-0.097907
-0.073589
-0.095316
-0.14712
-0.1916
-0.20226
-0.17745
-0.1655
-0.20246
-0.23903
-0.22526
-0.20226
-0.21988
-0.25741
-0.27938
-0.29417
-0.31376
-0.31255
-0.27968
-0.27579
-0.34138
-0.40446
-0.39475
-0.3677
-0.38651
-0.40446
-0.37187
-0.33094
-0.33208
-0.3677
-0.40445
-0.40446
-0.34547
-0.25741
-0.17658
-0.073589
0.068429
0.16538
0.16193
0.14699
0.21761
0.34919
0.46994
0.53301
0.5142
0.42272
0.29258
0.12861
-0.053262
-0.1655
-0.17074
-0.20226
-0.37197
-0.58828
-0.72135
-0.7721
-0.78695
-0.79048
-0.80599
-0.79048
-0.73993
-0.7721
-0.92548
-0.9743
-0.60203
0.27567
1.6067
3.419
5.3471
6.3233
5.5451
3.2535
0.37613
-1.9669
-3.0288
-2.9779
-2.4327
-1.7647
-1.1679
-0.79048
-0.63021
-0.58828
-0.5815
-0.5699
-0.5614
-0.55152
-0.53313
-0.51475
-0.49468
-0.45961
-0.40475
-0.3677
-0.37443
-0.38608
-0.3582
-0.31255
-0.27845
-0.22064
-0.11836
-0.055207
-0.086806
-0.11035
-0.032699
0.073466
0.11311
0.091848
0.064012
0.11023
0.26242
0.40434
0.43234
0.4411
0.53977
0.66169
0.7182
0.7536
0.82243
0.88227
0.89172
0.90065
0.95469
1.0109
1.02
1.0109
1.0171
1.0109
0.96353
0.90065
0.85087
0.80874
0.75624
0.68007
0.57805
0.47787
0.40234
0.33081
0.24173
0.16538
0.13017
0.11023
0.076304
0.055084
0.068285
0.073466
0.035249
-6.13e-05
0.012726
0.036702
0.028705
0.018321
0.037864
0.055084
0.03886
0.018321
0.023526
0.036702
0.030951
-6.13e-05
-0.044776
-0.073589
-0.065776
-0.036825
-0.015115
-0.018443
-0.046883
-0.073589
-0.075817
-0.073589
-0.090368
-0.11035
-0.11367
-0.11035
-0.11509
-0.12873
-0.14798
-0.1655
-0.17625
-0.20226
-0.25074
-0.25741
-0.18467
-0.12873
-0.17314
-0.23903
-0.23285
-0.20226
-0.21231
-0.22064
-0.18483
-0.1655
-0.21187
-0.25741
-0.23641
-0.20226
-0.21727
-0.23903
-0.22183
-0.22064
-0.27948
-0.33094
-0.30957
-0.25741
-0.23491
-0.23903
-0.24676
-0.25741
-0.27217
-0.27579
-0.26264
-0.27579
-0.33464
-0.34932
-0.25864
-0.18388
-0.23582
-0.31255
-0.29851
-0.27579
-0.33436
-0.38608
-0.34372
-0.29417
-0.32682
-0.3677
-0.33805
-0.31255
-0.36231
-0.40446
-0.35502
-0.27579
-0.24011
-0.20226
-0.11331
-0.018443
0.034761
0.055084
0.082399
0.18376
0.37523
0.53301
0.54301
0.45949
0.37487
0.27567
0.13858
-6.13e-05
-0.10182
-0.14712
-0.15408
-0.22064
-0.40226
-0.58828
-0.6598
-0.66181
-0.67762
-0.68019
-0.65318
-0.64343
-0.69501
-0.7721
-0.75394
-0.47799
0.25162
1.4705
3.0153
4.8528
6.4931
6.3049
3.5009
-0.073589
-2.2487
-2.8676
-2.6827
-2.1875
-1.7303
-1.3419
-0.88574
-0.55152
-0.52424
-0.58828
-0.5312
-0.45961
-0.50868
-0.55152
-0.46021
-0.3677
-0.40317
-0.45961
-0.41414
-0.34932
-0.35993
-0.3677
-0.29291
-0.22064
-0.23156
-0.23903
-0.15769
-0.073589
-0.073692
-0.073589
0.010774
0.091848
0.083711
0.073466
0.15018
0.2389
0.25882
0.27567
0.35993
0.45949
0.50959
0.53301
0.5678
0.60654
0.63395
0.66169
0.69657
0.71683
0.70743
0.69845
0.7163
0.73521
0.7274
0.71683
0.72674
0.73521
0.71324
0.66169
0.59212
0.51463
0.43791
0.36758
0.3056
0.25729
0.22454
0.20214
0.18262
0.16538
0.1493
0.12861
0.10017
0.073466
0.058823
0.055084
0.057217
0.073466
0.10276
0.11023
0.074991
0.036702
0.035515
0.055084
0.064159
0.055084
0.033915
0.018321
0.020111
0.018321
-0.0066049
-0.036825
-0.051153
-0.055207
-0.064405
-0.091971
-0.13896
-0.18388
-0.20429
-0.20226
-0.19269
-0.18388
-0.18145
-0.20226
-0.2454
-0.25741
-0.20622
-0.1655
-0.19949
-0.23903
-0.2125
-0.18388
-0.2225
-0.27579
-0.28045
-0.27579
-0.30382
-0.31255
-0.26095
-0.22064
-0.25606
-0.31255
-0.3221
-0.31255
-0.3246
-0.33094
-0.30655
-0.29417
-0.32787
-0.3677
-0.36789
-0.34932
-0.34376
-0.33094
-0.29506
-0.29417
-0.36188
-0.40446
-0.34864
-0.29417
-0.33921
-0.40446
-0.38925
-0.33094
-0.28658
-0.22064
-0.10717
-6.13e-05
0.049966
0.036702
0.005525
0.073466
0.29158
0.51463
0.58237
0.49625
0.34082
0.20214
0.13268
0.073466
-0.042091
-0.12873
-0.12178
-0.18388
-0.4317
-0.66181
-0.67769
-0.62505
-0.68087
-0.73534
-0.67448
-0.58828
-0.60282
-0.69857
-0.75716
-0.64343
-0.14573
0.86389
2.3183
4.2278
6.0754
6.1211
3.4768
-6.13e-05
-2.0945
-2.6838
-2.5421
-2.0772
-1.5751
-1.1397
-0.71526
-0.45961
-0.49268
-0.58828
-0.54068
-0.44123
-0.43247
-0.45961
-0.43581
-0.40446
-0.4112
-0.42284
-0.39883
-0.34932
-0.29914
-0.25741
-0.22755
-0.22064
-0.23238
-0.22064
-0.15797
-0.091971
-0.06775
-0.036825
0.044383
0.11023
0.10439
0.091848
0.14436
0.2389
0.32501
0.38596
0.4236
0.45949
0.51357
0.56978
0.61112
0.66169
0.73948
0.82712
0.89281
0.90065
0.84717
0.80874
0.84598
0.90065
0.90063
0.88227
0.88714
0.86389
0.76747
0.6433
0.54938
0.49625
0.46438
0.42272
0.34893
0.25729
0.1773
0.12861
0.11238
0.11023
0.098451
0.073466
0.044965
0.018321
6.2088e-05
0.018321
0.074597
0.091848
0.020088
-0.055207
-0.046554
-6.13e-05
0.012377
-6.13e-05
-0.0097049
-0.018443
-0.031393
-0.055207
-0.088225
-0.091971
-0.046826
-0.018443
-0.06024
-0.11035
-0.10414
-0.091971
-0.13217
-0.18388
-0.19693
-0.20226
-0.23101
-0.23903
-0.19332
-0.14712
-0.15499
-0.20226
-0.2463
-0.25741
-0.22855
-0.18388
-0.15981
-0.18388
-0.25149
-0.31255
-0.32192
-0.29417
-0.26714
-0.25741
-0.2667
-0.29417
-0.3253
-0.33094
-0.29811
-0.25741
-0.24429
-0.25741
-0.28103
-0.31255
-0.34803
-0.3677
-0.3565
-0.33094
-0.30018
-0.22064
-0.074211
0.073466
0.15483
0.14699
0.093249
0.14699
0.38584
0.60654
0.6113
0.51463
0.47606
0.42272
0.26288
0.055084
-0.1151
-0.20226
-0.21728
-0.29417
-0.51556
-0.69857
-0.67876
-0.64343
-0.7779
-0.86401
-0.71896
-0.58828
-0.71021
-0.88239
-0.80246
-0.42284
0.26696
1.2867
2.5408
3.9888
5.245
5.0917
2.9198
0.036702
-1.9486
-2.8125
-2.9668
-2.6287
-2.0451
-1.5074
-1.1405
-0.93754
-0.82533
-0.69857
-0.53018
-0.42284
-0.4645
-0.55152
-0.55376
-0.51475
-0.50228
-0.47799
-0.403
-0.33094
-0.31399
-0.33094
-0.33878
-0.33094
-0.30812
-0.23903
-0.11915
-0.036825
-0.04913
-0.055207
0.037601
0.14699
0.17172
0.14699
0.14294
0.16538
0.20687
0.29405
0.42697
0.53301
0.5571
0.5514
0.58072
0.62492
0.64954
0.68007
0.74099
0.80874
0.85456
0.88227
0.90059
0.90065
0.87203
0.82712
0.77792
0.69845
0.58149
0.51463
0.54716
0.5514
0.41276
0.2389
0.15878
0.091848
-0.043613
-0.091971
0.049468
0.14699
0.0041213
-0.18388
-0.18778
-0.073589
0.0081479
-6.13e-05
-0.086464
-0.14712
-0.098671
-0.036825
-0.0705
-0.12873
-0.12655
-0.12873
-0.19737
-0.27579
-0.29204
-0.22064
-0.096059
-0.055207
-0.1766
-0.31255
-0.31153
-0.23903
-0.2155
-0.27579
-0.3878
-0.44123
-0.3643
-0.27579
-0.30232
-0.3677
-0.36622
-0.3677
-0.43747
-0.44123
-0.29227
-0.20226
-0.34158
-0.51475
-0.50595
-0.40446
-0.36612
-0.42284
-0.53152
-0.55152
-0.40521
-0.31255
-0.44275
-0.53314
-0.33702
-0.055207
0.048796
-6.13e-05
-0.06604
-0.055207
0.073233
0.25729
0.39479
0.4411
0.39694
0.29405
0.17774
0.018321
-0.19287
-0.27579
-0.14507
-0.14712
-0.53325
-0.90077
-0.85921
-0.73534
-0.89977
-1.0846
-0.99451
-0.82725
-0.84547
-0.95592
-0.95209
-0.7721
-0.28085
0.71683
2.2246
4.1726
5.9836
6.0292
3.4962
0.12861
-2.0158
-2.9228
-3.3099
-3.2537
-2.7649
-2.0772
-1.3976
-0.93754
-0.80875
-0.90077
-1.0223
-0.99268
-0.77087
-0.53314
-0.46677
-0.58828
-0.78229
-0.84563
-0.67224
-0.51475
-0.59305
-0.64343
-0.41332
-0.1655
-0.19219
-0.3677
-0.46629
-0.45961
-0.38496
-0.23903
-0.057589
0.055084
0.04019
-0.036825
-0.07043
-0.018443
0.11452
0.31243
0.51605
0.6433
0.64622
0.49625
0.26762
0.2389
0.5559
0.91903
1.0002
0.86389
0.71591
0.6433
0.65928
0.71683
0.73607
0.69845
0.62743
0.51463
0.37524
0.33081
0.4177
0.40434
0.12111
-0.23903
-0.41804
-0.3677
-0.18819
-0.073589
-0.16063
-0.34932
-0.47336
-0.49637
-0.45499
-0.42284
-0.44663
-0.42284
-0.27414
-0.1655
-0.23962
-0.34932
-0.32733
-0.25741
-0.25896
-0.27579
-0.23691
-0.22064
-0.29219
-0.33094
-0.24937
-0.23903
-0.43665
-0.58828
-0.4645
-0.25741
-0.2146
-0.31255
-0.42844
-0.45961
-0.37415
-0.33094
-0.44876
-0.55152
-0.46408
-0.27579
-0.1602
-0.25741
-0.56313
-0.7721
-0.64986
-0.44123
-0.43315
-0.51475
-0.48833
-0.33094
-0.11735
-0.018443
-0.13026
-0.22064
-0.066163
0.11023
0.09122
0.20214
0.67108
0.97418
0.67758
0.22052
0.13204
0.29405
0.39133
0.31243
0.063184
-0.23903
-0.44981
-0.58828
-0.70708
-0.73534
-0.63503
-0.49637
-0.44642
-0.5699
-0.8567
-1.0846
-1.0327
-0.7721
-0.34407
0.5514
2.0679
3.7498
4.9503
5.3674
4.8705
3.2351
0.68827
-1.728
-3.0514
-3.2169
-2.6723
-1.875
-1.2101
-0.84563
-0.71995
-0.7721
-0.89407
-0.73534
-0.18889
0.12861
-0.23925
-0.64343
-0.41896
-0.073589
-0.20675
-0.40446
-0.2006
-6.13e-05
-0.1966
-0.40446
-0.21841
0.16538
0.40677
0.34919
0.043312
-0.11035
0.16524
0.4411
0.29177
0.091848
0.26467
0.51463
0.50013
0.45949
0.65763
0.93741
1.0749
1.0293
0.87846
0.86389
1.1159
1.2867
1.0858
0.90065
1.1014
1.3234
1.1803
0.93741
0.93002
1.0845
1.1951
1.1029
0.78664
0.53301
0.57728
0.69845
0.61292
0.40434
0.24111
0.091848
-0.086602
-0.18388
-0.13855
-0.091971
-0.16833
-0.29417
-0.34762
-0.25741
-0.05362
0.036702
-0.1267
-0.27579
-0.15451
0.055084
0.1041
0.018321
-0.075818
-0.073589
0.051339
0.14699
0.077651
-0.073589
-0.15792
-0.11035
0.037805
0.14699
0.09966
-0.073589
-0.25754
-0.31255
-0.18817
-0.073589
-0.13747
-0.20226
-0.093405
-0.036825
-0.23124
-0.42284
-0.35994
-0.22064
-0.22926
-0.31255
-0.33397
-0.27579
-0.18122
-0.14712
-0.2306
-0.31255
-0.26628
-0.1655
-0.10364
0.018321
0.26841
0.45949
0.4402
0.36758
0.41963
0.51463
0.52179
0.45949
0.38047
0.27567
0.13912
-6.13e-05
-0.11594
-0.22064
-0.33188
-0.42284
-0.48077
-0.58828
-0.78134
-0.91916
-0.89064
-0.75372
-0.6557
-0.71695
-0.9265
-1.0478
-0.76824
0.018321
1.2723
2.9227
4.6106
5.6432
5.4177
3.6763
0.83437
-1.8382
-3.2289
-3.3823
-2.9007
-2.1691
-1.4509
-0.93754
-0.65216
-0.5699
-0.62887
-0.66181
-0.58018
-0.49637
-0.52454
-0.5699
-0.51108
-0.42284
-0.39751
-0.3677
-0.27181
-0.23903
-0.35164
-0.40446
-0.23336
-0.036825
-0.029559
-0.11035
-0.11312
-0.036825
0.063097
0.14699
0.19172
0.2389
0.33017
0.40434
0.40696
0.4411
0.58207
0.66169
0.56311
0.53301
0.77554
1.0661
1.1409
1.0661
1.0034
1.0109
1.0808
1.1396
1.119
1.0661
1.0504
1.0661
1.0712
1.0293
0.92486
0.77198
0.61287
0.53301
0.55463
0.53301
0.35311
0.12861
0.010544
-6.13e-05
0.031556
0.055084
0.039098
-6.13e-05
-0.029156
-0.036825
-0.032831
-0.055207
-0.11885
-0.14712
-0.082631
-6.13e-05
0.014447
-0.018443
-0.046037
-0.055207
-0.050024
-0.036825
-0.027123
-0.036825
-0.064963
-0.073589
-0.042643
-0.018443
-0.046666
-0.12873
-0.22543
-0.23903
-0.13147
-0.055207
-0.13948
-0.27579
-0.31759
-0.27579
-0.22012
-0.20226
-0.24108
-0.27579
-0.24897
-0.22064
-0.25409
-0.29417
-0.28163
-0.25741
-0.27025
-0.31255
-0.35052
-0.33094
-0.24016
-0.18388
-0.24526
-0.33094
-0.33454
-0.31255
-0.33909
-0.3677
-0.3418
-0.29417
-0.2688
-0.25741
-0.24722
-0.25741
-0.30038
-0.3677
-0.43478
-0.44123
-0.36456
-0.31255
-0.3612
-0.38608
-0.26784
-0.091971
0.016054
0.055084
0.074573
0.091848
0.1318
0.25729
0.46867
0.62492
0.60136
0.4411
0.25298
0.073466
-0.07962
-0.14712
-0.1269
-0.14712
-0.30459
-0.53314
-0.71539
-0.79048
-0.76305
-0.73534
-0.79663
-0.82725
-0.74526
-0.71695
-0.85297
-0.95592
-0.68738
0.14699
1.5472
3.4006
5.2135
5.9557
4.9725
2.7388
0.25063
-1.7096
-2.7302
-2.9044
-2.6042
-2.0404
-1.3602
-0.82725
-0.59222
-0.5699
-0.61278
-0.62505
-0.58728
-0.53314
-0.50948
-0.53314
-0.57381
-0.55152
-0.42809
-0.33094
-0.36607
-0.42284
-0.37331
-0.27579
-0.22342
-0.20226
-0.17359
-0.14712
-0.1317
-0.091971
-0.012485
0.036702
0.01061
-6.13e-05
0.088854
0.22052
0.30995
0.34919
0.36669
0.40434
0.4859
0.56978
0.61114
0.6433
0.70663
0.77198
0.80538
0.84551
0.92009
0.9558
0.9021
0.86389
0.92746
0.99256
0.9481
0.84551
0.76912
0.71683
0.66216
0.60654
0.54879
0.47787
0.39015
0.29405
0.20364
0.14699
0.13257
0.11023
0.044097
-6.13e-05
0.032853
0.073466
0.048134
-6.13e-05
-0.011547
-6.13e-05
0.0040414
-6.13e-05
-0.0041044
-6.13e-05
0.016037
0.036702
0.048096
0.036702
0.001484
-0.036825
-0.056213
-0.055207
-0.044428
-0.036825
-0.041264
-0.055207
-0.071803
-0.091971
-0.11747
-0.14712
-0.17874
-0.20226
-0.21315
-0.23903
-0.29153
-0.31255
-0.26115
-0.20226
-0.20453
-0.23903
-0.2541
-0.25741
-0.26713
-0.25741
-0.21798
-0.22064
-0.30577
-0.3677
-0.31441
-0.23903
-0.24748
-0.27579
-0.24813
-0.23903
-0.31396
-0.38608
-0.36764
-0.31255
-0.29541
-0.29417
-0.27522
-0.27579
-0.3232
-0.3677
-0.36072
-0.33094
-0.3175
-0.29417
-0.23719
-0.20226
-0.22422
-0.22064
-0.1257
-6.13e-05
0.07542
0.073466
0.033264
0.091848
0.32038
0.5514
0.60312
0.51463
0.39825
0.27567
0.15103
0.055084
-0.0059668
-0.055207
-0.12582
-0.27579
-0.50682
-0.68019
-0.68888
-0.64343
-0.67675
-0.71695
-0.68945
-0.66181
-0.71186
-0.79048
-0.75773
-0.45961
0.278
1.4889
3.0041
4.7241
6.1601
5.8821
3.2415
-0.091971
-2.1658
-2.8125
-2.6854
-2.2243
-1.7562
-1.3419
-0.8892
-0.5699
-0.53867
-0.60666
-0.58144
-0.51475
-0.50677
-0.51475
-0.47823
-0.44123
-0.4424
-0.44123
-0.39768
-0.34932
-0.33548
-0.33094
-0.30198
-0.25741
-0.21628
-0.18388
-0.1572
-0.12873
-0.090643
-0.036825
0.028109
0.073466
0.083434
0.11023
0.1946
0.27567
0.29854
0.33081
0.43558
0.5514
0.60599
0.62492
0.65592
0.69845
0.73808
0.79036
0.8543
0.86389
0.78815
0.73521
0.79449
0.88227
0.89192
0.84551
0.79755
0.7536
0.70098
0.62492
0.51845
0.40434
0.31168
0.25729
0.23443
0.20214
0.13081
0.055084
0.015579
-6.13e-05
-0.018174
-0.036825
-0.048266
-0.055207
-0.060334
-0.055207
-0.03936
-0.036825
-0.062453
-0.091971
-0.096439
-0.073589
-0.039337
-0.018443
-0.026333
-0.055207
-0.085164
-0.091971
-0.071395
-0.073589
-0.13242
-0.18388
-0.16877
-0.14712
-0.18178
-0.22064
-0.20677
-0.18388
-0.20231
-0.23903
-0.25772
-0.25741
-0.25149
-0.25741
-0.28322
-0.31255
-0.32414
-0.31255
-0.28679
-0.27579
-0.29591
-0.31255
-0.29384
-0.27579
-0.29421
-0.31255
-0.29324
-0.27579
-0.29719
-0.31255
-0.2817
-0.25741
-0.2891
-0.33094
-0.32864
-0.31255
-0.31985
-0.31255
-0.2629
-0.23903
-0.29271
-0.34932
-0.32932
-0.27579
-0.24275
-0.18388
-0.061684
0.073466
0.16042
0.16538
0.11523
0.14699
0.34118
0.5514
0.61192
0.5514
0.46177
0.36758
0.27368
0.16538
0.035531
-0.036825
-0.014119
-0.055207
-0.27722
-0.51475
-0.58893
-0.58828
-0.64036
-0.68019
-0.64523
-0.58828
-0.59341
-0.68019
-0.76937
-0.68019
-0.16315
0.86389
2.2974
4.1726
6.0315
6.2314
3.8859
0.62492
-1.5347
-2.3713
-2.4716
-2.2059
-1.8599
-1.4706
-0.95953
-0.5699
-0.51484
-0.58828
-0.56075
-0.49637
-0.51213
-0.53314
-0.47605
-0.42284
-0.44442
-0.45961
-0.38994
-0.31255
-0.30984
-0.33094
-0.3065
-0.25741
-0.22055
-0.18388
-0.13302
-0.091971
-0.077414
-0.055207
0.0022171
0.055084
0.068932
0.091848
0.16906
0.25729
0.30682
0.34919
0.4196
0.47787
0.49029
0.51463
0.59765
0.68007
0.70077
0.69845
0.72546
0.77198
0.80912
0.82712
0.8246
0.80874
0.78942
0.77198
0.75279
0.71683
0.65517
0.58816
0.53343
0.47787
0.40338
0.31243
0.21954
0.14699
0.10737
0.091848
0.080727
0.055084
0.01088
-0.018443
-0.0089927
-6.13e-05
-0.028945
-0.055207
-0.038609
-0.018443
-0.03499
-0.055207
-0.043188
-0.018443
-0.012369
-0.036825
-0.081755
-0.11035
-0.095244
-0.055207
-0.027457
-0.036825
-0.08581
-0.14712
-0.18719
-0.20226
-0.2024
-0.18388
-0.15214
-0.14712
-0.19055
-0.23903
-0.2475
-0.23903
-0.24852
-0.25741
-0.24625
-0.25741
-0.31616
-0.34932
-0.3011
-0.25741
-0.29888
-0.34932
-0.32623
-0.29417
-0.32484
-0.3677
-0.35981
-0.33094
-0.32286
-0.31255
-0.27921
-0.27579
-0.33672
-0.38608
-0.35973
-0.33094
-0.37369
-0.42284
-0.40145
-0.34932
-0.31434
-0.25741
-0.1446
-6.13e-05
0.12917
0.16538
0.099325
0.11023
0.3227
0.5514
0.59082
0.51463
0.45555
0.38596
0.26089
0.11023
-0.023448
-0.091971
-0.094258
-0.1655
-0.3908
-0.60666
-0.65041
-0.62505
-0.6682
-0.71695
-0.6968
-0.64343
-0.63184
-0.68019
-0.73401
-0.68019
-0.30477
0.5514
1.8829
3.7131
5.5651
5.9005
3.8632
0.86389
-1.2762
-2.261
-2.5099
-2.3162
-1.9564
-1.5074
-0.95374
-0.5699
-0.55641
-0.66181
-0.62015
-0.51475
-0.50293
-0.53314
-0.51906
-0.49637
-0.50157
-0.49637
-0.44778
-0.40446
-0.40758
-0.40446
-0.34272
-0.27579
-0.25601
-0.22064
-0.11851
-0.036825
-0.05247
-0.091971
-0.066
-6.13e-05
0.054755
0.11023
0.18199
0.2389
0.26138
0.29405
0.37409
0.45949
0.50492
0.5514
0.63605
0.69845
0.68933
0.68007
0.73727
0.80874
0.82713
0.80874
0.79302
0.79036
0.79746
0.80874
0.80771
0.77198
0.69234
0.58816
0.48709
0.40434
0.34176
0.29405
0.25016
0.20214
0.14738
0.091848
0.042174
-6.13e-05
-0.033624
-0.055207
-0.062125
-0.036825
0.018646
0.036702
-0.022988
-0.073589
-0.036423
0.018321
0.0049019
-0.036825
-0.049852
-0.073589
-0.1419
-0.18388
-0.14561
-0.11035
-0.15398
-0.20226
-0.17477
-0.12873
-0.13524
-0.1655
-0.17675
-0.18388
-0.21057
-0.25741
-0.31061
-0.34932
-0.35768
-0.33094
-0.28467
-0.27579
-0.33025
-0.3677
-0.32146
-0.25741
-0.2566
-0.31255
-0.37531
-0.38608
-0.32383
-0.25741
-0.25913
-0.33094
-0.42396
-0.44123
-0.34199
-0.27579
-0.36604
-0.45961
-0.39688
-0.31255
-0.34632
-0.34932
-0.18468
-6.13e-05
0.040526
-6.13e-05
7.3316e-05
0.055084
0.15131
0.31243
0.5177
0.66169
0.65667
0.49625
0.25194
0.055084
-0.01291
-0.018443
-0.070979
-0.22064
-0.44484
-0.62505
-0.67229
-0.69857
-0.81269
-0.88239
-0.79777
-0.68019
-0.68686
-0.80886
-0.92284
-0.84563
-0.37432
0.49625
1.6515
3.18
4.7982
5.2388
3.7178
1.3051
-0.58175
-1.7831
-2.5782
-2.8493
-2.5563
-1.9853
-1.4215
-1.0111
-0.78589
-0.66181
-0.55858
-0.51475
-0.57899
-0.66181
-0.66489
-0.60666
-0.53772
-0.47799
-0.43381
-0.42284
-0.44028
-0.44123
-0.39356
-0.33094
-0.29104
-0.25741
-0.20431
-0.12873
-0.048075
-0.018443
-0.063059
-0.091971
-0.026499
0.073466
0.12569
0.14699
0.17912
0.22052
0.26691
0.33081
0.4172
0.53301
0.66106
0.71683
0.65798
0.60654
0.67018
0.7536
0.74432
0.71683
0.75827
0.79036
0.73776
0.69845
0.75666
0.79036
0.68763
0.58816
0.6139
0.58816
0.36526
0.14699
0.13803
0.2389
0.27568
0.20214
0.052045
-0.073589
-0.094077
-0.073589
-0.099532
-0.12873
-0.10314
-0.073589
-0.090435
-0.091971
-0.033803
-0.018443
-0.12403
-0.23903
-0.24692
-0.20226
-0.19354
-0.22064
-0.24982
-0.25741
-0.23607
-0.20226
-0.18509
-0.23903
-0.36508
-0.40446
-0.26003
-0.14712
-0.25717
-0.40446
-0.38044
-0.31255
-0.36416
-0.45961
-0.48414
-0.45961
-0.43668
-0.40446
-0.3586
-0.3677
-0.46321
-0.53314
-0.48579
-0.42284
-0.45242
-0.49637
-0.46159
-0.40446
-0.39473
-0.40446
-0.38331
-0.31255
-0.20199
-0.091971
-0.018326
0.018321
0.051084
0.12861
0.26582
0.42272
0.52587
0.45949
0.20542
-0.018443
-0.036498
-6.13e-05
-0.10809
-0.33094
-0.55652
-0.71695
-0.78349
-0.82725
-0.91048
-0.91916
-0.78604
-0.68019
-0.77093
-0.9743
-1.0976
-0.99268
-0.51222
0.36758
1.5711
3.1616
4.8372
5.4226
4.1473
1.8197
-0.32624
-1.8934
-2.8722
-3.1801
-2.9043
-2.3346
-1.7352
-1.25
-0.92614
-0.75372
-0.69719
-0.73534
-0.83421
-0.84563
-0.69337
-0.5699
-0.63461
-0.73534
-0.68161
-0.53314
-0.41622
-0.34932
-0.31944
-0.34932
-0.42283
-0.44123
-0.34183
-0.20226
-0.12617
-0.11035
-0.11128
-0.14712
-0.20679
-0.14712
0.10057
0.33081
0.3588
0.31243
0.3616
0.47787
0.57072
0.5514
0.42077
0.4411
0.77084
1.0477
0.93539
0.71683
0.72935
0.77198
0.61708
0.49625
0.63172
0.84551
0.90205
0.79036
0.59993
0.4411
0.3804
0.33081
0.20158
0.073466
0.039052
0.073466
0.096558
-6.13e-05
-0.23931
-0.44123
-0.44316
-0.29417
-0.13754
-0.12873
-0.30712
-0.40446
-0.22088
-0.073589
-0.25732
-0.45961
-0.34837
-0.1655
-0.19628
-0.27579
-0.1992
-0.073589
-0.056157
-0.14712
-0.28153
-0.40446
-0.46498
-0.42284
-0.29919
-0.22064
-0.27665
-0.3677
-0.37794
-0.38608
-0.4787
-0.53314
-0.44677
-0.40446
-0.54708
-0.60666
-0.38308
-0.22064
-0.42571
-0.75372
-0.86089
-0.66181
-0.28422
-0.11035
-0.3635
-0.62505
-0.47215
-0.14712
-0.013339
-0.055207
-0.10702
-6.13e-05
0.31405
0.56978
0.51246
0.25729
0.032957
-0.11035
-0.18923
-0.20226
-0.18974
-0.22064
-0.34424
-0.60666
-0.96309
-1.1949
-1.1516
-0.99268
-0.93238
-0.91916
-0.87174
-0.88239
-0.99982
-1.0294
-0.70997
-0.036825
0.96092
2.5183
4.4536
5.6983
5.2969
3.1984
0.17375
-2.3713
-3.3919
-3.2537
-2.8207
-2.2427
-1.496
-1.0294
-1.0815
-1.1214
-0.72563
-0.40446
-0.65322
-0.95592
-0.75641
-0.3677
-0.24473
-0.38608
-0.60124
-0.68019
-0.50966
-0.31255
-0.31683
-0.33094
-0.15039
-6.13e-05
-0.095537
-0.22064
-0.13927
-6.13e-05
0.017242
0.055084
0.24114
0.38596
0.31509
0.16538
0.13511
0.22052
0.35676
0.62492
1.0192
1.1764
0.89789
0.68007
0.95469
1.3418
1.3622
1.1396
0.96837
0.91903
0.9672
1.0845
1.1952
1.158
0.93703
0.80874
0.96647
1.0477
0.73839
0.45949
0.59771
0.71683
0.38323
-0.036825
-0.11138
-6.13e-05
0.020165
-0.073589
-0.19512
-0.1655
0.086704
0.2389
0.02913
-0.23903
-0.21902
-0.073589
-0.042943
-6.13e-05
0.17999
0.29405
0.17391
-0.018443
-0.075004
-6.13e-05
0.10792
0.20214
0.24559
0.12861
-0.13991
-0.22064
0.087302
0.36758
0.22114
-0.091971
-0.19884
-0.14712
-0.10419
-0.11035
-0.15301
-0.18388
-0.15706
-0.073589
0.0088466
-0.055207
-0.30659
-0.47799
-0.34005
-0.055207
0.13063
0.22052
0.28198
0.29405
0.25499
0.18376
0.13329
0.29405
0.71046
0.97418
0.75684
0.36758
0.20414
0.11023
-0.12164
-0.18388
0.11719
0.25729
-0.17907
-0.73534
-0.87272
-0.73534
-0.64932
-0.64343
-0.67237
-0.71695
-0.76152
-0.79048
-0.7603
-0.60666
-0.14423
0.84551
2.3884
4.4116
6.3028
6.4336
3.9653
0.47787
-2.009
-3.125
-3.3136
-2.9044
-2.2572
-1.636
-1.1139
-0.73534
-0.5197
-0.47799
-0.58544
-0.68019
-0.63259
-0.45961
-0.26148
-0.20226
-0.34665
-0.47799
-0.40514
-0.33094
-0.45602
-0.5699
-0.4465
-0.22064
-0.091142
-0.036825
0.01209
-6.13e-05
-0.092552
-0.091971
0.10752
0.29405
0.27208
0.20214
0.28068
0.42272
0.49537
0.53301
0.5982
0.68007
0.75657
0.82712
0.89029
0.9558
1.0199
1.0293
0.96048
0.90065
0.93047
1.0109
1.0671
1.0845
1.065
0.99256
0.87048
0.73521
0.62611
0.56978
0.55483
0.53301
0.45739
0.29405
0.06963
-0.055207
0.012506
0.073466
-0.053573
-0.18388
-0.12414
-0.036825
-0.10046
-0.20226
-0.19678
-0.091971
0.030195
0.018321
-0.18151
-0.29417
-0.10674
0.091848
0.0097589
-0.12873
-0.056867
0.073466
0.056734
-0.036825
-0.088776
-0.12873
-0.19492
-0.22064
-0.16159
-0.11035
-0.1443
-0.18388
-0.1472
-0.091971
-0.099738
-0.18388
-0.30917
-0.38608
-0.35605
-0.31255
-0.34317
-0.34932
-0.24515
-0.14712
-0.17926
-0.31255
-0.45081
-0.49637
-0.4137
-0.29417
-0.24046
-0.25741
-0.284
-0.20226
0.031638
0.22052
0.20297
0.16538
0.30667
0.47787
0.49961
0.47787
0.533
0.5514
0.42194
0.22052
0.056681
-0.036825
-0.086259
-0.20226
-0.44305
-0.64343
-0.65565
-0.62505
-0.70948
-0.79048
-0.74733
-0.66181
-0.66862
-0.79048
-0.94463
-0.95592
-0.58465
0.27567
1.5887
3.3454
5.1441
5.8638
4.7549
2.3528
-0.23334
-2.1324
-2.9282
-2.8676
-2.473
-1.9118
-1.2361
-0.73534
-0.58938
-0.62505
-0.63214
-0.60666
-0.6091
-0.58828
-0.50425
-0.42284
-0.40032
-0.42284
-0.44345
-0.42284
-0.35109
-0.27579
-0.24815
-0.25741
-0.26756
-0.27579
-0.27667
-0.22064
-0.091835
0.018321
0.03322
0.018321
0.057145
0.11023
0.12951
0.18376
0.32113
0.4411
0.45512
0.4411
0.49143
0.56978
0.61711
0.6433
0.67469
0.73521
0.82144
0.86389
0.8185
0.7536
0.75131
0.82712
0.93528
0.97418
0.88167
0.73521
0.63975
0.60654
0.59493
0.56978
0.50403
0.38596
0.24078
0.14699
0.14687
0.16538
0.12021
0.036702
-0.024996
-0.036825
-0.0016497
0.036702
0.034666
0.018321
0.021536
-6.13e-05
-0.075318
-0.11035
-0.040032
0.018321
-0.042802
-0.12873
-0.12753
-0.091971
-0.099749
-0.12873
-0.13803
-0.12873
-0.11399
-0.11035
-0.12741
-0.14712
-0.1537
-0.1655
-0.2016
-0.25741
-0.31181
-0.33094
-0.29915
-0.25741
-0.25017
-0.25741
-0.25114
-0.27579
-0.35416
-0.38608
-0.30255
-0.22064
-0.25439
-0.33094
-0.34893
-0.33094
-0.32826
-0.34932
-0.3801
-0.38608
-0.34714
-0.29417
-0.26932
-0.29417
-0.34852
-0.34932
-0.23932
-0.073589
0.060868
0.14699
0.20403
0.22052
0.21648
0.31243
0.55136
0.73521
0.68331
0.47787
0.2824
0.14699
0.06245
-6.13e-05
-0.082849
-0.20226
-0.34646
-0.49637
-0.62667
-0.71695
-0.75648
-0.75372
-0.73536
-0.66181
-0.55291
-0.58828
-0.8221
-0.93754
-0.52523
0.45949
1.8524
3.6947
5.5919
6.1027
4.3638
1.5256
-0.79479
-2.1324
-2.6456
-2.5735
-2.2316
-1.728
-1.093
-0.62505
-0.53696
-0.62505
-0.64214
-0.60666
-0.61194
-0.60666
-0.53936
-0.49637
-0.53299
-0.53314
-0.4057
-0.29417
-0.33304
-0.40446
-0.36854
-0.29417
-0.27427
-0.25741
-0.18306
-0.091971
-0.037216
-0.018443
-0.013572
-6.13e-05
0.037472
0.091848
0.14671
0.20214
0.26201
0.31243
0.34791
0.40434
0.49782
0.56978
0.57009
0.53301
0.51595
0.5514
0.63327
0.69845
0.69775
0.68007
0.70593
0.7536
0.7801
0.79036
0.79124
0.7536
0.66426
0.56978
0.51311
0.47787
0.43085
0.36758
0.29499
0.22052
0.15173
0.091848
0.040681
-6.13e-05
-0.028436
-0.036825
-0.026469
-0.018443
-0.030266
-0.055207
-0.076188
-0.073589
-0.042728
-0.018443
-0.028608
-0.036825
-0.01096
-6.13e-05
-0.048531
-0.11035
-0.13444
-0.14712
-0.18134
-0.22064
-0.23923
-0.22064
-0.17236
-0.1655
-0.24019
-0.29417
-0.24058
-0.18388
-0.23097
-0.29417
-0.27712
-0.25741
-0.31962
-0.40446
-0.43167
-0.42284
-0.4148
-0.3677
-0.26555
-0.22064
-0.30788
-0.40446
-0.38603
-0.33094
-0.34175
-0.3677
-0.34398
-0.31255
-0.32443
-0.3677
-0.40534
-0.40446
-0.34547
-0.23903
-0.11848
-6.13e-05
0.10202
0.12861
0.079182
0.11023
0.32576
0.58816
0.71373
0.66169
0.48865
0.29405
0.16607
0.091848
0.012665
-0.073589
-0.16402
-0.33094
-0.59034
-0.7721
-0.74899
-0.68019
-0.73677
-0.79048
-0.71606
-0.64343
-0.7133
-0.82725
-0.79109
-0.49637
0.17986
1.3051
2.7547
4.4116
5.7745
5.4594
2.855
-0.38608
-2.3544
-2.9412
-2.8209
-2.3529
-1.8008
-1.3052
-0.86157
-0.60666
-0.6258
-0.69857
-0.63601
-0.55152
-0.5862
-0.62505
-0.53901
-0.42284
-0.39151
-0.42284
-0.45259
-0.45961
-0.43789
-0.38608
-0.31685
-0.25741
-0.22221
-0.18388
-0.12001
-0.073589
-0.078235
-0.073589
-0.0037953
0.073466
0.10178
0.14699
0.26232
0.36758
0.38141
0.33081
0.28617
0.31243
0.42651
0.5514
0.60595
0.60654
0.60487
0.62492
0.66596
0.69845
0.69515
0.68007
0.68469
0.69845
0.70101
0.69845
0.69354
0.66169
0.587
0.49625
0.41842
0.34919
0.27562
0.20214
0.13816
0.091848
0.066443
0.055084
0.046085
0.036702
0.024585
-6.13e-05
-0.039056
-0.073589
-0.085698
-0.073589
-0.049844
-0.036825
-0.047925
-0.073589
-0.094696
-0.091971
-0.064603
-0.055207
-0.092044
-0.12873
-0.11892
-0.091971
-0.09367
-0.12873
-0.18158
-0.23903
-0.28337
-0.29417
-0.26949
-0.23903
-0.23404
-0.25741
-0.29386
-0.33094
-0.35449
-0.34932
-0.31606
-0.27579
-0.25394
-0.27579
-0.33911
-0.38608
-0.37228
-0.34932
-0.37006
-0.38608
-0.34967
-0.31255
-0.33163
-0.38608
-0.42922
-0.44123
-0.41329
-0.33094
-0.20461
-0.091971
-0.037486
-6.13e-05
0.072287
0.12861
0.13981
0.2389
0.49639
0.71683
0.70291
0.49625
0.24186
0.036702
-0.071595
-0.091971
-0.087084
-0.14712
-0.30762
-0.47799
-0.56288
-0.60666
-0.6753
-0.73534
-0.75136
-0.71695
-0.67377
-0.71695
-0.85933
-0.90077
-0.57539
0.16538
1.254
2.7388
4.3439
5.1101
4.3496
2.4815
0.39
-1.3236
-2.3413
-2.6287
-2.4031
-1.9118
-1.3641
-0.93754
-0.70098
-0.60666
-0.58049
-0.58828
-0.61986
-0.62505
-0.57536
-0.51475
-0.48551
-0.47799
-0.46358
-0.44123
-0.41528
-0.38608
-0.35376
-0.31255
-0.2613
-0.22064
-0.2023
-0.18388
-0.14073
-0.073589
0.00076341
0.055084
0.075415
0.091848
0.13517
0.18376
0.2142
0.25729
0.33823
0.42272
0.47145
0.49625
0.51997
0.53301
0.52969
0.5514
0.62083
0.68007
0.67807
0.66169
0.68428
0.71683
0.71749
0.69845
0.68093
0.66169
0.63142
0.58816
0.53093
0.45949
0.37713
0.29405
0.21772
0.14699
0.079204
0.018321
-0.02938
-0.055207
-0.058524
-0.055207
-0.062051
-0.073589
-0.079629
-0.091971
-0.11579
-0.11035
-0.054966
-0.018443
-0.056892
-0.11035
-0.1103
-0.091971
-0.1059
-0.12873
-0.13197
-0.14712
-0.19691
-0.23903
-0.23319
-0.20226
-0.18447
-0.18388
-0.19194
-0.22064
-0.26733
-0.27579
-0.21906
-0.18388
-0.2438
-0.33094
-0.35725
-0.34932
-0.35249
-0.33094
-0.26061
-0.22064
-0.27081
-0.33094
-0.32081
-0.31255
-0.37597
-0.42284
-0.37048
-0.29417
-0.28413
-0.31255
-0.32151
-0.31255
-0.2918
-0.22064
-0.089688
0.036702
0.09908
0.091848
0.064674
0.12861
0.33364
0.5514
0.63686
0.58816
0.47517
0.36758
0.30392
0.22052
0.056923
-0.091971
-0.14557
-0.23903
-0.47563
-0.68019
-0.68743
-0.62505
-0.6542
-0.71695
-0.72945
-0.69857
-0.6765
-0.71695
-0.78578
-0.68019
-0.1419
0.82712
2.0723
3.7131
5.4138
5.588
3.3442
0.27567
-1.6757
-2.4081
-2.5545
-2.3529
-1.9625
-1.489
-0.9614
-0.60666
-0.58312
-0.66181
-0.60841
-0.51475
-0.52621
-0.55152
-0.48493
-0.42284
-0.45593
-0.49637
-0.45158
-0.40446
-0.43447
-0.44123
-0.33418
-0.22064
-0.20952
-0.22064
-0.15976
-0.091971
-0.09037
-0.091971
-0.030842
0.036702
0.052454
0.073466
0.15567
0.2389
0.26475
0.29405
0.38487
0.47787
0.50789
0.51463
0.55006
0.58816
0.59865
0.62492
0.69802
0.7536
0.73749
0.71683
0.75601
0.79036
0.75159
0.69845
0.69249
0.68007
0.60496
0.51463
0.46219
0.42272
0.35841
0.27567
0.19408
0.12861
0.086269
0.055084
0.021424
-6.13e-05
0.0014695
-6.13e-05
-0.026923
-0.055207
-0.059608
-0.055207
-0.062578
-0.073589
-0.075341
-0.073589
-0.075971
-0.073589
-0.063211
-0.073589
-0.12144
-0.1655
-0.16865
-0.1655
-0.19323
-0.22064
-0.21378
-0.20226
-0.21771
-0.23903
-0.24139
-0.23903
-0.25039
-0.27579
-0.30447
-0.31255
-0.28941
-0.27579
-0.30303
-0.33094
-0.31871
-0.29417
-0.29673
-0.33094
-0.37795
-0.40446
-0.38844
-0.34932
-0.3198
-0.31255
-0.32254
-0.33094
-0.31594
-0.27579
-0.21719
-0.12873
-0.016206
0.073466
0.11089
0.11023
0.12211
0.2389
0.47871
0.68007
0.68778
0.53301
0.33314
0.16538
0.067988
0.036702
0.019235
-0.055207
-0.21905
-0.44123
-0.64821
-0.75372
-0.72777
-0.66181
-0.66067
-0.68019
-0.67069
-0.69857
-0.79327
-0.80886
-0.54152
0.073466
1.0281
2.3344
3.7525
4.6689
4.5314
3.18
0.982
-1.1581
-2.4304
-2.7573
-2.4851
-1.9302
-1.3559
-0.91916
-0.6396
-0.51475
-0.5132
-0.53314
-0.51238
-0.47799
-0.47308
-0.47799
-0.4566
-0.42284
-0.39481
-0.3677
-0.33528
-0.31255
-0.30709
-0.29417
-0.25228
-0.20226
-0.16699
-0.12873
-0.07112
-0.018443
0.0068609
0.018321
0.040793
0.091848
0.17253
0.25729
0.32031
0.36758
0.41398
0.45949
0.49935
0.53301
0.56042
0.58816
0.61937
0.6433
0.65196
0.66169
0.68707
0.71683
0.73647
0.7536
0.77484
0.79036
0.7858
0.7536
0.69476
0.62492
0.55902
0.49625
0.43062
0.36758
0.31151
0.25729
0.20042
0.14699
0.10401
0.073466
0.051707
0.036702
0.023794
-6.13e-05
-0.036657
-0.055207
-0.034666
-6.13e-05
0.014347
-6.13e-05
-0.032051
-0.055207
-0.051101
-0.036825
-0.037792
-0.055207
-0.080162
-0.11035
-0.1418
-0.1655
-0.17663
-0.18388
-0.19566
-0.20226
-0.19623
-0.20226
-0.23574
-0.25741
-0.23694
-0.22064
-0.25221
-0.29417
-0.301
-0.29417
-0.30324
-0.31255
-0.30415
-0.29417
-0.29997
-0.31255
-0.31724
-0.31255
-0.29601
-0.25741
-0.19098
-0.091971
0.024619
0.11023
0.14087
0.14699
0.18605
0.33081
0.57653
0.7536
0.71701
0.53301
0.34081
0.18376
0.063647
-6.13e-05
-0.02702
-0.11035
-0.30098
-0.51475
-0.64715
-0.69857
-0.71037
-0.69857
-0.68372
-0.66181
-0.64731
-0.69857
-0.81459
-0.84563
-0.57714
0.073466
1.089
2.4815
3.9617
4.7057
4.1015
2.3896
0.28456
-1.5258
-2.5728
-2.7941
-2.4469
-1.8382
-1.2354
-0.82725
-0.64995
-0.60666
-0.58826
-0.5699
-0.57344
-0.5699
-0.53458
-0.49637
-0.47678
-0.45961
-0.42382
-0.38608
-0.36425
-0.34932
-0.32655
-0.29417
-0.25638
-0.22064
-0.19159
-0.1655
-0.13441
-0.091971
-0.038008
0.018321
0.067707
0.11023
0.15197
0.20214
0.26438
0.33081
0.39099
0.4411
0.48369
0.53301
0.59442
0.6433
0.65849
0.66169
0.67797
0.69845
0.70868
0.71683
0.73227
0.7536
0.77162
0.77198
0.74512
0.69845
0.6437
0.58816
0.53071
0.45949
0.36795
0.27567
0.20294
0.14699
0.097705
0.055084
0.020926
-6.13e-05
-0.0078136
-0.018443
-0.042176
-0.055207
-0.03921
-0.018443
-0.020609
-0.036825
-0.048002
-0.055207
-0.062964
-0.055207
-0.029075
-0.036825
-0.10795
-0.1655
-0.1426
-0.11035
-0.14457
-0.18388
-0.16226
-0.14712
-0.20268
-0.25741
-0.2411
-0.22064
-0.26484
-0.31255
-0.29765
-0.27579
-0.30555
-0.33094
-0.29903
-0.27579
-0.32119
-0.3677
-0.34333
-0.29417
-0.27444
-0.23903
-0.14599
-0.036825
0.039237
0.073466
0.096414
0.18376
0.37048
0.56978
0.67225
0.6433
0.51057
0.34919
0.22738
0.11023
-0.04489
-0.14712
-0.14157
-0.20226
-0.45401
-0.69857
-0.73364
-0.68019
-0.70561
-0.73534
-0.68734
-0.64343
-0.69572
-0.79048
-0.8061
-0.64343
-0.15791
0.69845
1.8584
3.4557
5.135
5.2755
2.9686
-0.14712
-2.0771
-2.7206
-2.744
-2.4265
-1.9599
-1.4522
-0.9167
-0.5699
-0.5627
-0.66181
-0.63021
-0.55152
-0.56533
-0.58828
-0.52252
-0.45961
-0.48322
-0.51475
-0.46866
-0.40446
-0.39228
-0.38608
-0.33228
-0.27579
-0.26078
-0.23903
-0.16583
-0.091971
-0.068323
-0.055207
-0.0054307
0.055084
0.092422
0.12861
0.18643
0.2389
0.26393
0.29405
0.36035
0.4411
0.50371
0.5514
0.5915
0.60654
0.58811
0.56978
0.58126
0.60654
0.62265
0.6433
0.68154
0.71683
0.72687
0.71683
0.69568
0.66169
0.60982
0.53301
0.43467
0.34919
0.29946
0.25729
0.19039
0.11023
0.042074
-6.13e-05
-0.015174
-0.018443
-0.026791
-0.036825
-0.04006
-0.036825
-0.032398
-0.036825
-0.055697
-0.073589
-0.07834
-0.091971
-0.13145
-0.1655
-0.16602
-0.1655
-0.19554
-0.22064
-0.20719
-0.20226
-0.24565
-0.27579
-0.2416
-0.22064
-0.28205
-0.34932
-0.34047
-0.31255
-0.33236
-0.34932
-0.31194
-0.27579
-0.29615
-0.33094
-0.32568
-0.29417
-0.25973
-0.20226
-0.10961
-6.13e-05
0.10071
0.14699
0.14262
0.22052
0.45703
0.69845
0.7684
0.66169
0.46795
0.29405
0.20782
0.14699
0.025624
-0.11035
-0.20516
-0.34932
-0.5947
-0.7721
-0.74437
-0.66181
-0.69408
-0.73534
-0.67469
-0.62505
-0.70017
-0.79048
-0.72081
-0.42284
0.17928
1.1029
2.2492
3.6579
4.9702
4.7976
2.4325
-0.58828
-2.4352
-2.9779
-2.8313
-2.3529
-1.8149
-1.3236
-0.85067
-0.55152
-0.53797
-0.60666
-0.56661
-0.49637
-0.51574
-0.55152
-0.51078
-0.45961
-0.46277
-0.45961
-0.38982
-0.31255
-0.29221
-0.29417
-0.2694
-0.23903
-0.22782
-0.20226
-0.13646
-0.073589
-0.052716
-0.036825
0.01535
0.073466
0.10473
0.14699
0.23239
0.31243
0.34228
0.36758
0.43406
0.49625
0.50781
0.51463
0.56109
0.60654
0.60712
0.58816
0.58996
0.62492
0.68226
0.73521
0.75631
0.73521
0.68367
0.6433
0.63801
0.62492
0.56102
0.47787
0.41673
0.36758
0.30843
0.2389
0.16698
0.11023
0.079581
0.055084
0.019051
-6.13e-05
0.018769
0.036702
0.016144
-0.018443
-0.033471
-0.036825
-0.046127
-0.055207
-0.057685
-0.073589
-0.11162
-0.12873
-0.096713
-0.073589
-0.11228
-0.1655
-0.17786
-0.18388
-0.2233
-0.25741
-0.24825
-0.23903
-0.27049
-0.29417
-0.26824
-0.25741
-0.31582
-0.3677
-0.33688
-0.27579
-0.24539
-0.20226
-0.10065
0.036702
0.16305
0.22052
0.20522
0.2389
0.4106
0.62492
0.74269
0.71683
0.57476
0.40434
0.28667
0.18376
0.039204
-0.073589
-0.10396
-0.20226
-0.46806
-0.69857
-0.70548
-0.64343
-0.69814
-0.75372
-0.68958
-0.62505
-0.69018
-0.79048
-0.76431
-0.55152
-0.056633
0.79036
1.9473
3.4925
5.0504
5.1285
2.9144
-0.055207
-1.9221
-2.5919
-2.6825
-2.4449
-2.0434
-1.5625
-1.014
-0.62505
-0.56764
-0.64343
-0.62944
-0.5699
-0.5678
-0.5699
-0.51369
-0.45961
-0.46068
-0.47799
-0.46067
-0.42284
-0.3924
-0.3677
-0.33917
-0.31255
-0.28775
-0.23903
-0.15677
-0.091971
-0.085082
-0.091971
-0.061505
-0.018443
0.0050183
0.036702
0.10461
0.18376
0.2432
0.29405
0.35052
0.38596
0.38539
0.40434
0.48095
0.5514
0.55373
0.53301
0.54911
0.58816
0.61822
0.6433
0.66972
0.68007
0.66265
0.6433
0.63856
0.60654
0.51677
0.42272
0.37643
0.34919
0.29622
0.22052
0.14229
0.073466
0.023024
-6.13e-05
-0.00017076
-6.13e-05
-0.016783
-0.036825
-0.042308
-0.036825
-0.032397
-0.036825
-0.053574
-0.073589
-0.087745
-0.11035
-0.14785
-0.1655
-0.14104
-0.11035
-0.11524
-0.1655
-0.23919
-0.27579
-0.24167
-0.20226
-0.22417
-0.27579
-0.30263
-0.29417
-0.26615
-0.25741
-0.28518
-0.29417
-0.2318
-0.11035
0.019414
0.091848
0.089817
0.091848
0.18435
0.38596
0.63453
0.77198
0.69455
0.51463
0.38201
0.25729
0.077179
-0.055207
-0.070408
-0.12873
-0.35423
-0.58828
-0.6582
-0.64343
-0.67047
-0.71695
-0.73997
-0.73534
-0.72973
-0.7721
-0.84925
-0.80886
-0.44712
0.29405
1.354
2.7021
4.0385
4.5403
3.6703
1.8933
0.033598
-1.4706
-2.4284
-2.739
-2.5067
-2.0037
-1.4839
-1.0662
-0.77459
-0.62505
-0.60525
-0.64343
-0.67764
-0.68019
-0.6507
-0.60666
-0.56477
-0.53314
-0.50847
-0.49637
-0.49345
-0.47799
-0.43293
-0.3677
-0.30043
-0.23903
-0.18554
-0.14712
-0.12349
-0.091971
-0.038809
-6.13e-05
-0.00028552
0.018321
0.10174
0.18376
0.19956
0.20214
0.25266
0.31243
0.33409
0.34919
0.39286
0.4411
0.4651
0.47787
0.49995
0.53301
0.57023
0.60654
0.63364
0.6433
0.63334
0.60654
0.57167
0.5514
0.55145
0.53301
0.46337
0.36758
0.28433
0.22052
0.16858
0.12861
0.09648
0.055084
-0.00040245
-0.036825
-0.032065
-0.018443
-0.033361
-0.073589
-0.11519
-0.12873
-0.10413
-0.073589
-0.073587
-0.11035
-0.16268
-0.18388
-0.1498
-0.11035
-0.11954
-0.1655
-0.21253
-0.23903
-0.24203
-0.25741
-0.30983
-0.34932
-0.33
-0.29417
-0.29075
-0.29417
-0.26698
-0.22064
-0.17402
-0.11035
-0.023092
0.055084
0.10321
0.12861
0.16825
0.31243
0.5769
0.77198
0.73314
0.5514
0.38344
0.2389
0.088088
-0.036825
-0.12059
-0.22064
-0.37589
-0.53314
-0.63185
-0.69857
-0.76877
-0.80886
-0.79725
-0.75372
-0.7291
-0.7721
-0.86376
-0.86401
-0.5794
0.073466
1.0771
2.3896
3.7289
4.4484
4.0523
2.6285
0.67852
-1.1765
-2.4233
-2.886
-2.7054
-2.1691
-1.5803
-1.1397
-0.8966
-0.79048
-0.73251
-0.68019
-0.63899
-0.60666
-0.58416
-0.5699
-0.55458
-0.55152
-0.56119
-0.55152
-0.4985
-0.42284
-0.35832
-0.33094
-0.33849
-0.33094
-0.26815
-0.18388
-0.1261
-0.091971
-0.06241
-0.036825
-0.013863
0.018321
0.067783
0.12861
0.19097
0.25729
0.3253
0.36758
0.36986
0.36758
0.39468
0.4411
0.48048
0.49625
0.49017
0.49625
0.542
0.60654
0.65429
0.68007
0.6871
0.66169
0.60281
0.5514
0.53467
0.51463
0.45111
0.36758
0.29848
0.2389
0.17465
0.11023
0.052462
-6.13e-05
-0.046688
-0.073589
-0.07548
-0.073589
-0.088391
-0.11035
-0.1227
-0.12873
-0.13551
-0.12873
-0.10497
-0.11035
-0.17082
-0.22064
-0.2012
-0.1655
-0.17644
-0.20226
-0.20033
-0.20226
-0.23956
-0.27579
-0.27543
-0.27579
-0.31104
-0.33094
-0.29593
-0.27579
-0.32943
-0.38608
-0.36789
-0.31255
-0.27286
-0.22064
-0.12752
-0.018443
0.070917
0.11023
0.11135
0.16538
0.33379
0.5514
0.70988
0.73521
0.6197
0.45949
0.35071
0.2389
0.060994
-0.073589
-0.086671
-0.14712
-0.3896
-0.64343
-0.72198
-0.71695
-0.76112
-0.79048
-0.74219
-0.68019
-0.69119
-0.7721
-0.83938
-0.75372
-0.31675
0.53301
1.7287
3.3822
5.1342
5.4594
3.466
0.5514
-1.489
-2.4265
-2.7064
-2.5368
-2.117
-1.5809
-0.99061
-0.58828
-0.53326
-0.62505
-0.63587
-0.58828
-0.57686
-0.5699
-0.52549
-0.49637
-0.51725
-0.53314
-0.49156
-0.44123
-0.4332
-0.42284
-0.36222
-0.29417
-0.265
-0.23903
-0.17883
-0.12873
-0.12557
-0.11035
-0.031193
0.055084
0.088728
0.11023
0.16899
0.2389
0.28372
0.31243
0.3442
0.38596
0.43538
0.47787
0.50087
0.51463
0.53151
0.5514
0.5686
0.56978
0.55401
0.56978
0.64314
0.69845
0.67054
0.62492
0.63198
0.6433
0.59571
0.51463
0.44195
0.36758
0.28028
0.22052
0.20946
0.18376
0.093736
-6.13e-05
-0.030111
-0.018443
-0.010855
-0.018443
-0.035194
-0.036825
-0.011077
-6.13e-05
-0.039462
-0.091971
-0.11172
-0.11035
-0.11181
-0.11035
-0.099265
-0.091971
-0.10116
-0.12873
-0.16785
-0.20226
-0.22091
-0.23903
-0.27084
-0.29417
-0.29001
-0.29417
-0.33189
-0.34932
-0.30425
-0.25741
-0.27072
-0.31255
-0.33392
-0.33094
-0.31984
-0.33094
-0.36939
-0.3677
-0.27392
-0.12873
-0.0041068
0.055084
0.056353
0.073466
0.1776
0.36758
0.58073
0.71683
0.70806
0.58816
0.43456
0.27567
0.12374
0.018321
-0.034831
-0.11035
-0.2619
-0.44123
-0.57204
-0.62505
-0.61258
-0.58828
-0.60538
-0.62505
-0.618
-0.64343
-0.7288
-0.75372
-0.53893
-6.13e-05
0.88636
2.0955
3.398
4.3748
4.5662
3.5476
1.409
-0.91916
-2.4529
-2.9412
-2.6448
-2.0037
-1.4334
-1.0294
-0.71308
-0.55152
-0.58247
-0.62505
-0.54617
-0.44123
-0.43389
-0.47799
-0.4861
-0.47799
-0.48172
-0.45961
-0.38826
-0.33094
-0.33633
-0.34932
-0.30855
-0.23903
-0.18692
-0.1655
-0.16503
-0.14712
-0.084369
-0.018443
0.012778
0.055084
0.14986
0.25729
0.32365
0.33081
0.29705
0.29405
0.3662
0.4411
0.44507
0.42272
0.4379
0.49625
0.56896
0.58816
0.52852
0.51463
0.64136
0.79036
0.82215
0.77198
0.72216
0.68007
0.63232
0.58816
0.5451
0.47787
0.37817
0.27567
0.2079
0.20214
0.24473
0.25729
0.18014
0.055084
-0.046222
-0.091971
-0.086424
-0.073589
-0.091306
-0.091971
-0.032209
-6.13e-05
-0.060452
-0.073589
0.059967
0.14699
0.017432
-0.1655
-0.20526
-0.1655
-0.16451
-0.18388
-0.181
-0.18388
-0.2132
-0.22064
-0.17864
-0.1655
-0.24133
-0.33094
-0.34712
-0.31255
-0.28322
-0.27579
-0.29247
-0.33094
-0.37749
-0.42284
-0.45095
-0.42284
-0.32085
-0.18388
-0.064753
0.018321
0.067425
0.091848
0.11498
0.14699
0.20275
0.34919
0.58743
0.73521
0.6456
0.42272
0.23516
0.073466
-0.10031
-0.14712
-0.020042
-0.055207
-0.46942
-0.86401
-0.84648
-0.66181
-0.65555
-0.73534
-0.7382
-0.69857
-0.69818
-0.75372
-0.80194
-0.66181
-0.099687
0.86389
2.0861
3.7866
5.6575
5.9005
3.4569
0.073466
-2.0845
-2.886
-3.0194
-2.739
-2.239
-1.728
-1.2712
-0.93754
-0.76537
-0.69857
-0.67662
-0.64343
-0.5862
-0.55152
-0.57302
-0.64343
-0.70797
-0.64343
-0.41184
-0.25741
-0.37185
-0.51475
-0.43369
-0.34932
-0.47556
-0.51475
-0.21419
0.091848
0.06439
-0.073589
-0.03613
0.036702
-0.024352
-0.073589
0.04178
0.25729
0.43978
0.47787
0.35264
0.2389
0.29211
0.40434
0.42696
0.42272
0.48027
0.53301
0.513
0.49625
0.55167
0.58816
0.53325
0.51463
0.63175
0.7536
0.72915
0.56978
0.36967
0.2389
0.23277
0.27567
0.25998
0.16538
0.034229
-0.073589
-0.11389
-0.073589
0.0029872
-0.018443
-0.19266
-0.33094
-0.26647
-0.091971
0.017065
-0.055207
-0.29121
-0.44123
-0.31934
-0.11035
-0.062404
-0.18388
-0.3531
-0.42284
-0.31862
-0.14712
-0.067973
-0.1655
-0.40062
-0.55152
-0.46177
-0.33094
-0.37767
-0.47799
-0.46527
-0.40446
-0.40642
-0.51475
-0.69145
-0.75372
-0.59139
-0.38608
-0.33959
-0.44123
-0.56342
-0.49637
-0.17152
0.055084
-0.095717
-0.29417
-0.1656
0.14699
0.37038
0.4411
0.39961
0.34919
0.36337
0.33081
0.13692
-0.14712
-0.39016
-0.53314
-0.58028
-0.5699
-0.56484
-0.69857
-0.98461
-1.0846
-0.80398
-0.5699
-0.80535
-1.25
-1.4726
-1.4155
-1.0761
-0.25741
1.122
2.7021
4.004
4.963
5.3948
4.3381
1.4639
-1.6912
-3.4713
-3.8051
-3.3501
-2.5919
-1.8927
-1.3052
-0.75018
-0.53314
-0.82612
-1.0478
-0.74027
-0.3677
-0.45002
-0.71695
-0.74735
-0.60666
-0.484
-0.3677
-0.24625
-0.31255
-0.61799
-0.73534
-0.37156
0.036702
0.027142
-0.22064
-0.3524
-0.23903
0.065043
0.25729
0.12616
-6.13e-05
0.20672
0.47787
0.4931
0.42272
0.50302
0.6433
0.70073
0.7536
0.87304
0.86389
0.62273
0.5514
0.92193
1.2131
0.96311
0.62492
0.72147
1.0293
1.1673
1.1396
1.0468
0.91903
0.785
0.56978
0.26965
0.25729
0.71796
1.0477
0.71587
0.20214
0.089925
0.018321
-0.38094
-0.44123
0.29402
0.86389
0.43512
-0.23903
-0.24534
0.16538
0.43127
0.38596
0.10885
-0.018443
0.27712
0.56978
0.42351
0.18376
0.25147
0.34919
0.17248
-0.036825
0.0037387
0.22052
0.41318
0.42272
0.20924
-0.055207
-0.17055
-0.091971
0.094639
0.16538
-0.0055989
-0.11035
0.1019
0.22052
-0.10194
-0.34932
-0.051337
0.29405
0.17334
-0.018443
0.17716
0.53301
0.70361
0.6433
0.47377
0.49625
0.84663
1.0661
0.75618
0.2389
-0.033451
-0.036825
0.049718
-6.13e-05
-0.29991
-0.60666
-0.66284
-0.60666
-0.64749
-0.73534
-0.77533
-0.75372
-0.71708
-0.73534
-0.8132
-0.82725
-0.52526
0.31243
1.721
3.6028
5.4269
5.974
4.5308
1.9484
-0.45861
-2.1507
-3.0531
-3.1985
-2.814
-2.1875
-1.5409
-1.0294
-0.71784
-0.62505
-0.70516
-0.7721
-0.6982
-0.58828
-0.56942
-0.55152
-0.43845
-0.3677
-0.4545
-0.5699
-0.56028
-0.47799
-0.41169
-0.29417
-0.093826
-6.13e-05
-0.13558
-0.31255
-0.31431
-0.14712
0.070047
0.20214
0.1819
0.12861
0.18061
0.27567
0.31961
0.38596
0.53602
0.6433
0.60507
0.5514
0.60923
0.66169
0.58914
0.51463
0.56387
0.6433
0.64056
0.60654
0.61894
0.66169
0.69343
0.71683
0.72627
0.66169
0.50286
0.34919
0.28933
0.29405
0.28667
0.20214
0.037702
-0.091971
-0.093538
-0.018443
0.029063
-0.036825
-0.21091
-0.29417
-0.14574
0.036702
0.034496
-0.036825
-0.013802
-6.13e-05
-0.096349
-0.12873
0.026999
0.14699
0.030258
-0.1655
-0.22297
-0.14712
-0.035943
0.036702
0.022352
-0.073589
-0.19412
-0.27579
-0.28272
-0.22064
-0.1349
-0.11035
-0.18642
-0.25741
-0.22957
-0.22064
-0.3346
-0.40446
-0.28894
-0.18388
-0.27481
-0.38608
-0.3297
-0.25741
-0.33599
-0.42284
-0.36444
-0.29417
-0.34092
-0.33094
-0.11561
0.091848
0.096234
0.11023
0.3377
0.5514
0.51884
0.42272
0.47159
0.51463
0.38721
0.2389
0.22478
0.20214
0.028931
-0.14712
-0.18641
-0.23903
-0.44848
-0.69857
-0.82793
-0.80886
-0.7047
-0.62505
-0.66569
-0.7721
-0.84765
-0.84563
-0.67986
-0.25741
0.57956
2.0036
3.8595
5.7351
6.8455
5.6983
1.9355
-2.0037
-3.6812
-3.4742
-2.7886
-2.1324
-1.6168
-1.2133
-0.77312
-0.47799
-0.52723
-0.66181
-0.61987
-0.51475
-0.50923
-0.51475
-0.42318
-0.33094
-0.33312
-0.3677
-0.35454
-0.31255
-0.28168
-0.27579
-0.28235
-0.23903
-0.11567
-6.13e-05
0.02342
-0.018443
-0.050474
-6.13e-05
0.14968
0.29405
0.33478
0.33081
0.36595
0.40434
0.39811
0.38596
0.41119
0.45949
0.5017
0.53301
0.55246
0.5514
0.53347
0.51463
0.51195
0.56978
0.68667
0.71683
0.57362
0.45949
0.54912
0.66169
0.60021
0.47787
0.45238
0.51463
0.5784
0.51463
0.27783
0.073466
0.084673
0.18376
0.19013
0.12861
0.084521
0.091848
0.14361
0.16538
0.10042
0.018321
0.0021076
0.036702
0.071829
0.073466
0.03264
-6.13e-05
0.017669
0.018321
-0.053274
-0.091971
-0.015943
0.036702
-0.057768
-0.1655
-0.14525
-0.11035
-0.18122
-0.23903
-0.17045
-0.091971
-0.12784
-0.22064
-0.27115
-0.25741
-0.20373
-0.1655
-0.18958
-0.25741
-0.32222
-0.3677
-0.38723
-0.3677
-0.31541
-0.25741
-0.22388
-0.25741
-0.35479
-0.40446
-0.32982
-0.23903
-0.25072
-0.31255
-0.33869
-0.34932
-0.37735
-0.40446
-0.40649
-0.3677
-0.29993
-0.27579
-0.33822
-0.42284
-0.44701
-0.38608
-0.27287
-0.20226
-0.23259
-0.27579
-0.2269
-0.11035
0.013812
0.14699
0.29436
0.42272
0.50279
0.53301
0.52486
0.47787
0.39271
0.31243
0.25881
0.11023
-0.18532
-0.34932
-0.19688
-0.091971
-0.36475
-0.71695
-0.78799
-0.73534
-0.79449
-0.82725
-0.71417
-0.62505
-0.7079
-0.84563
-0.7723
-0.23903
0.90609
2.4999
4.1172
5.5513
6.3547
5.1285
1.4671
-2.261
-3.724
-3.4191
-2.7752
-2.1324
-1.4773
-0.95592
-0.59537
-0.44123
-0.51847
-0.60666
-0.54153
-0.47799
-0.56938
-0.64343
-0.52118
-0.34932
-0.30505
-0.33094
-0.32206
-0.31255
-0.33885
-0.31255
-0.17962
-0.073589
-0.10603
-0.14712
-0.062879
0.018321
-0.028301
-0.036825
0.13357
0.27567
0.20182
0.11023
0.20509
0.33081
0.30544
0.22052
0.21533
0.29405
0.4003
0.45949
0.42386
0.34919
0.30984
0.29405
0.27312
0.27567
0.32747
0.40434
0.47153
0.53301
0.59105
0.58816
0.50283
0.45949
0.54381
0.62492
0.56854
0.4411
0.35792
0.34919
0.3889
0.40434
0.34201
0.25729
0.22091
0.22052
0.215
0.18376
0.12996
0.091848
0.099503
0.14699
0.19755
0.16538
0.025625
-0.055207
0.045028
0.16538
0.12956
-6.13e-05
-0.09309
-0.091971
-0.012913
0.018321
-0.089359
-0.22064
-0.23803
-0.18388
-0.14727
-0.12873
-0.11369
-0.12873
-0.1837
-0.23903
-0.25469
-0.23903
-0.21789
-0.18388
-0.14036
-0.1655
-0.29167
-0.38608
-0.3406
-0.25741
-0.26257
-0.33094
-0.38712
-0.38608
-0.32151
-0.27579
-0.3124
-0.33094
-0.24461
-0.18388
-0.26728
-0.3677
-0.34979
-0.31255
-0.36815
-0.42284
-0.37697
-0.33094
-0.38003
-0.40446
-0.30295
-0.23903
-0.35003
-0.45961
-0.39572
-0.29417
-0.32053
-0.42284
-0.49167
-0.47799
-0.38508
-0.31255
-0.32869
-0.29417
-0.093879
0.11023
0.15872
0.16538
0.27547
0.4411
0.56254
0.60654
0.57202
0.47787
0.35682
0.22052
0.077815
-0.055207
-0.1635
-0.22064
-0.23287
-0.29417
-0.46126
-0.64343
-0.73057
-0.71695
-0.6685
-0.62505
-0.63686
-0.75372
-0.91012
-0.88239
-0.39364
0.66169
2.1769
3.9704
5.5347
5.8821
4.4612
1.8381
-0.88524
-2.7022
-3.1656
-2.8309
-2.4642
-2.0221
-1.2967
-0.68019
-0.52276
-0.60666
-0.63576
-0.60666
-0.59842
-0.5699
-0.49132
-0.42284
-0.41118
-0.45961
-0.52599
-0.51475
-0.37942
-0.23903
-0.21033
-0.22064
-0.17205
-0.12873
-0.15854
-0.1655
-0.069659
-6.13e-05
-0.059339
-0.073589
0.099757
0.25729
0.20303
0.091848
0.11408
0.20214
0.2353
0.22052
0.20404
0.20214
0.22854
0.31243
0.43949
0.51463
0.47169
0.36758
0.30021
0.33081
0.45574
0.58816
0.64282
0.62492
0.58695
0.58816
0.64298
0.66169
0.57021
0.4411
0.37194
0.36758
0.38796
0.38596
0.33459
0.27567
0.25359
0.2389
0.19095
0.12861
0.085648
0.055084
0.029624
0.073466
0.20314
0.2389
0.066062
-0.073589
0.030273
0.14699
0.038255
-0.11035
-0.079073
0.036702
0.07878
0.018321
-0.097352
-0.14712
-0.058248
0.036702
-0.0037569
-0.11035
-0.16865
-0.20226
-0.25396
-0.25741
-0.17469
-0.14712
-0.26678
-0.33094
-0.17692
-0.036825
-0.13784
-0.29417
-0.28701
-0.23903
-0.30296
-0.38608
-0.37194
-0.29417
-0.22701
-0.22064
-0.28249
-0.33094
-0.29712
-0.25741
-0.29315
-0.33094
-0.29766
-0.27579
-0.33929
-0.42284
-0.44038
-0.3677
-0.24389
-0.20226
-0.31617
-0.44123
-0.42924
-0.33094
-0.26348
-0.31255
-0.47273
-0.55152
-0.41335
-0.23903
-0.23068
-0.33094
-0.38804
-0.29417
-0.041422
0.20214
0.27808
0.2389
0.2157
0.27567
0.4161
0.53301
0.52699
0.45949
0.41275
0.29405
0.043609
-0.14712
-0.13331
-0.11035
-0.27551
-0.49637
-0.59447
-0.62505
-0.68244
-0.73534
-0.75202
-0.71695
-0.66622
-0.71695
-0.86621
-0.84563
-0.31501
0.82712
2.4237
4.2278
5.6951
5.8454
4.201
1.5073
-1.0478
-2.6838
-3.1675
-2.886
-2.414
-1.8934
-1.2932
-0.79048
-0.52926
-0.47799
-0.54678
-0.58828
-0.51871
-0.44123
-0.4647
-0.49637
-0.42996
-0.3677
-0.40373
-0.44123
-0.3738
-0.23903
-0.12051
-0.073589
-0.10749
-0.14712
-0.11988
-0.073589
-0.066815
-0.036825
0.071328
0.16538
0.16367
0.16538
0.25848
0.31243
0.21991
0.14699
0.24771
0.38596
0.40551
0.38596
0.43736
0.53301
0.60776
0.60654
0.52186
0.49625
0.62329
0.69845
0.56033
0.45949
0.62368
0.84551
0.86976
0.73521
0.58728
0.5514
0.65787
0.71683
0.56718
0.36758
0.31604
0.34919
0.34385
0.33081
0.34571
0.29405
0.12696
-6.13e-05
0.043999
0.14699
0.16631
0.14699
0.16368
0.18376
0.16118
0.091848
0.0015589
-0.036825
0.015247
0.073466
0.050328
-0.018443
-0.065579
-0.091971
-0.11346
-0.11035
-0.075708
-0.055207
-0.081987
-0.11035
-0.096714
-0.091971
-0.14278
-0.18388
-0.15526
-0.12873
-0.17042
-0.20226
-0.15545
-0.11035
-0.15306
-0.25741
-0.35041
-0.3677
-0.28981
-0.18388
-0.13158
-0.14712
-0.20148
-0.25741
-0.28665
-0.29417
-0.29789
-0.31255
-0.33616
-0.31255
-0.21683
-0.18388
-0.30519
-0.38608
-0.26734
-0.18388
-0.34302
-0.49637
-0.39526
-0.22064
-0.2052
-0.31255
-0.41313
-0.40446
-0.26625
-0.1655
-0.24612
-0.38608
-0.41977
-0.38608
-0.3702
-0.33094
-0.23651
-0.20226
-0.29007
-0.31255
-0.12112
0.11023
0.18436
0.18376
0.24565
0.33081
0.37649
0.4411
0.55576
0.58816
0.4452
0.25729
0.1652
0.11023
-0.0029262
-0.1655
-0.33021
-0.44123
-0.47698
-0.53314
-0.67764
-0.79048
-0.76849
-0.66181
-0.59148
-0.64343
-0.76656
-0.71695
-0.19555
0.90065
2.4327
4.1359
5.4912
5.6799
4.2998
1.8749
-0.63484
-2.3897
-3.0069
-2.8493
-2.494
-2.0221
-1.3789
-0.82725
-0.57953
-0.53314
-0.52776
-0.49637
-0.44036
-0.40446
-0.42275
-0.44123
-0.39781
-0.33094
-0.29421
-0.29417
-0.30804
-0.29417
-0.22757
-0.14712
-0.099762
-0.073589
-0.042208
-0.018443
-0.010374
0.018321
0.090023
0.16538
0.19984
0.20214
0.20179
0.20214
0.20995
0.27567
0.40884
0.51463
0.51522
0.4411
0.37832
0.4411
0.65325
0.82712
0.79942
0.68007
0.63804
0.68007
0.74682
0.80874
0.84199
0.82712
0.77638
0.7536
0.79219
0.80874
0.72792
0.62492
0.58344
0.5514
0.46403
0.36758
0.31433
0.27567
0.21967
0.16538
0.14169
0.18376
0.28159
0.31243
0.19946
0.073466
0.071681
0.14699
0.19373
0.16538
0.0698
-0.018443
-0.031371
-6.13e-05
0.014531
-6.13e-05
-0.031773
-0.055207
-0.05254
-0.055207
-0.088519
-0.11035
-0.084885
-0.036825
-0.0084697
-0.055207
-0.178
-0.22064
-0.09082
-6.13e-05
-0.13453
-0.33094
-0.37674
-0.29417
-0.19195
-0.14712
-0.18816
-0.23903
-0.21937
-0.18388
-0.20483
-0.23903
-0.23519
-0.23903
-0.28936
-0.33094
-0.30932
-0.25741
-0.2271
-0.22064
-0.2249
-0.25741
-0.31722
-0.33094
-0.25653
-0.20226
-0.26021
-0.31255
-0.24933
-0.22064
-0.34931
-0.44123
-0.32424
-0.1655
-0.16482
-0.27579
-0.37209
-0.40446
-0.3655
-0.27579
-0.19025
-0.1655
-0.22183
-0.33094
-0.42984
-0.44123
-0.33177
-0.1655
-0.021972
0.11023
0.25529
0.34919
0.34937
0.34919
0.42764
0.47787
0.4038
0.34919
0.42838
0.42272
0.15714
-0.11035
-0.13136
-0.12873
-0.33873
-0.55152
-0.54503
-0.49637
-0.604
-0.75372
-0.80233
-0.73534
-0.63058
-0.64343
-0.7718
-0.66181
0.08635
1.4521
3.1131
4.8895
6.2804
5.9189
3.2351
-0.073589
-2.102
-2.8125
-2.9168
-2.7206
-2.37
-1.8199
-1.0256
-0.44123
-0.43578
-0.64343
-0.62645
-0.47799
-0.41911
-0.40446
-0.3502
-0.31255
-0.33456
-0.3677
-0.35845
-0.33094
-0.31675
-0.27579
-0.17825
-0.11035
-0.13298
-0.11035
0.051846
0.14699
0.014183
-0.12873
-0.050629
0.16538
0.33872
0.36758
0.2515
0.16538
0.25318
0.36758
0.34492
0.31243
0.41356
0.5514
0.6009
0.58816
0.57821
0.60654
0.67668
0.71683
0.67831
0.68007
0.80758
0.90065
0.81645
0.68007
0.65104
0.71683
0.79025
0.79036
0.68105
0.53301
0.43383
0.38596
0.35087
0.29405
0.20664
0.14699
0.16236
0.20214
0.20049
0.16538
0.1266
0.091848
0.060667
0.036702
0.020683
-6.13e-05
-0.024952
-6.13e-05
0.096788
0.16538
0.12207
0.036702
-0.00025557
-6.13e-05
-0.0078621
-0.055207
-0.14012
-0.18388
-0.12812
-0.055207
-0.055774
-0.073589
-0.045512
-0.055207
-0.16538
-0.25741
-0.22375
-0.14712
-0.13463
-0.1655
-0.18549
-0.18388
-0.17105
-0.18388
-0.24325
-0.29417
-0.28572
-0.25741
-0.25822
-0.27579
-0.28089
-0.25741
-0.21227
-0.20226
-0.26286
-0.33094
-0.33843
-0.31255
-0.29962
-0.29417
-0.28034
-0.25741
-0.23177
-0.23903
-0.29181
-0.31255
-0.25097
-0.20226
-0.25723
-0.3677
-0.44305
-0.44123
-0.36956
-0.29417
-0.27855
-0.31255
-0.35202
-0.3677
-0.35231
-0.33094
-0.32904
-0.33094
-0.30445
-0.23903
-0.13971
-6.13e-05
0.15939
0.2389
0.1934
0.16538
0.28095
0.4411
0.50947
0.49625
0.45152
0.38596
0.29716
0.12861
-0.12994
-0.29417
-0.24782
-0.22064
-0.42066
-0.68019
-0.77174
-0.71695
-0.63807
-0.5699
-0.55313
-0.66181
-0.85821
-0.90077
-0.51274
0.36758
1.6589
3.2351
4.7405
5.6248
5.3918
3.6579
0.7177
-2.0221
-3.3181
-3.3272
-2.8024
-2.1507
-1.5695
-1.1214
-0.74689
-0.49637
-0.43628
-0.45961
-0.4652
-0.47799
-0.52916
-0.55152
-0.48384
-0.38608
-0.32879
-0.29417
-0.24903
-0.23903
-0.28883
-0.29417
-0.18452
-0.091971
-0.13201
-0.18388
-0.11549
-6.13e-05
0.054878
0.055084
0.046771
0.073466
0.15115
0.22052
0.22848
0.22052
0.25613
0.33081
0.41005
0.45949
0.46595
0.45949
0.47967
0.5514
0.65822
0.71683
0.67338
0.60654
0.60874
0.66169
0.71206
0.7536
0.78597
0.79036
0.7569
0.69845
0.6329
0.56978
0.51044
0.45949
0.41315
0.34919
0.26112
0.18376
0.14946
0.16538
0.20307
0.18376
0.071711
-0.036825
-0.044055
0.036702
0.13228
0.14699
0.046517
-0.036825
0.012613
0.091848
0.071752
-6.13e-05
-0.038387
-0.055207
-0.075336
-0.073589
-0.037746
-6.13e-05
0.0029837
-0.055207
-0.16076
-0.22064
-0.17471
-0.11035
-0.12454
-0.18388
-0.21928
-0.22064
-0.20288
-0.18388
-0.18208
-0.20226
-0.23409
-0.25741
-0.25896
-0.25741
-0.27069
-0.27579
-0.25367
-0.23903
-0.26163
-0.29417
-0.30243
-0.29417
-0.28957
-0.29417
-0.30749
-0.33094
-0.3568
-0.3677
-0.35043
-0.31255
-0.27233
-0.23903
-0.2226
-0.25741
-0.34997
-0.42284
-0.41217
-0.38608
-0.41206
-0.40446
-0.29808
-0.22064
-0.28232
-0.40446
-0.4672
-0.40446
-0.24226
-0.18388
-0.34484
-0.45961
-0.28002
0.018321
0.18174
0.22052
0.23563
0.25729
0.29994
0.38596
0.49149
0.51463
0.39304
0.22052
0.10649
-6.13e-05
-0.15921
-0.27579
-0.28012
-0.29417
-0.43124
-0.62505
-0.76185
-0.80886
-0.79511
-0.73534
-0.68521
-0.75372
-0.92843
-0.93754
-0.47078
0.49625
1.8283
3.419
4.9193
5.6616
5.1176
3.1432
0.24262
-2.261
-3.3191
-3.2353
-2.795
-2.2243
-1.5644
-1.0294
-0.73534
-0.62505
-0.60859
-0.60666
-0.58457
-0.53314
-0.47192
-0.45961
-0.51126
-0.53314
-0.44822
-0.34932
-0.33598
-0.34932
-0.31125
-0.25741
-0.23723
-0.23903
-0.23079
-0.18388
-0.092669
-6.13e-05
0.04865
0.055084
0.047552
0.055084
0.096351
0.16538
0.24196
0.31243
0.36711
0.40434
0.42677
0.42272
0.39484
0.40434
0.48783
0.56978
0.58008
0.58816
0.66496
0.73521
0.72525
0.71683
0.78447
0.84551
0.81294
0.73521
0.68427
0.66169
0.63919
0.58816
0.49466
0.38596
0.29694
0.2389
0.20167
0.14699
0.056003
-6.13e-05
0.029643
0.055084
-0.0052644
-0.073589
-0.061684
-6.13e-05
0.046415
0.036702
-0.027666
-0.055207
0.014334
0.073466
0.016894
-0.091971
-0.15293
-0.14712
-0.10492
-0.091971
-0.15011
-0.22064
-0.23036
-0.20226
-0.18279
-0.14712
-0.084807
-0.091971
-0.21849
-0.33094
-0.30413
-0.20226
-0.14108
-0.14712
-0.19894
-0.27579
-0.33929
-0.33094
-0.24196
-0.1655
-0.18735
-0.27579
-0.3551
-0.40446
-0.41845
-0.3677
-0.26291
-0.18388
-0.19533
-0.31255
-0.47876
-0.51475
-0.33332
-0.18388
-0.28452
-0.42284
-0.36052
-0.25741
-0.30866
-0.40446
-0.39986
-0.34932
-0.33833
-0.34932
-0.34672
-0.34932
-0.3707
-0.3677
-0.31703
-0.29417
-0.35667
-0.42284
-0.40877
-0.3677
-0.36169
-0.34932
-0.27535
-0.12873
0.057152
0.18376
0.19518
0.18376
0.25295
0.38596
0.5084
0.53301
0.42426
0.29405
0.24558
0.16538
-0.044753
-0.22064
-0.21836
-0.18388
-0.2879
-0.47799
-0.6378
-0.75372
-0.83474
-0.80886
-0.68041
-0.60666
-0.69565
-0.80886
-0.68635
-0.1655
0.85648
2.3528
4.0302
5.5696
6.4078
5.3123
1.9722
-1.5625
-3.2309
-3.3272
-2.9731
-2.4632
-1.8409
-1.2684
-0.80703
-0.55152
-0.55197
-0.60666
-0.54254
-0.44123
-0.42654
-0.44123
-0.40066
-0.3677
-0.39781
-0.40446
-0.31755
-0.25741
-0.32011
-0.34932
-0.20934
-0.073589
-0.11107
-0.1655
-0.070528
0.036702
0.0082394
-0.036825
0.036967
0.14699
0.18812
0.22052
0.30819
0.36758
0.32965
0.29405
0.35656
0.4411
0.45901
0.47787
0.56684
0.6433
0.6319
0.62492
0.70681
0.79036
0.78522
0.7536
0.77604
0.84551
0.91424
0.91903
0.83317
0.73521
0.69832
0.68007
0.61039
0.47787
0.31421
0.18376
0.13418
0.14699
0.16716
0.14699
0.071331
-0.018443
-0.071009
-0.073589
-0.043386
-0.018443
-0.024482
-0.018443
0.033067
0.055084
-0.010678
-0.073589
-0.046432
-6.13e-05
-0.019166
-0.055207
-0.05115
-0.055207
-0.11038
-0.18388
-0.22321
-0.1655
-0.016462
0.036702
-0.12688
-0.29417
-0.25282
-0.14712
-0.16489
-0.22064
-0.19797
-0.1655
-0.20185
-0.27579
-0.3297
-0.31255
-0.22498
-0.20226
-0.33014
-0.44123
-0.37551
-0.25741
-0.24455
-0.27579
-0.25895
-0.23903
-0.27002
-0.33094
-0.37816
-0.3677
-0.29314
-0.23903
-0.27569
-0.34932
-0.38238
-0.38608
-0.39085
-0.38608
-0.3628
-0.33094
-0.30727
-0.33094
-0.40345
-0.44123
-0.382
-0.25741
-0.15294
-0.20226
-0.43319
-0.60666
-0.52547
-0.34932
-0.30108
-0.3677
-0.4471
-0.47799
-0.42771
-0.33094
-0.23821
-0.11035
0.079836
0.22052
0.23285
0.2389
0.34974
0.45949
0.44176
0.33081
0.21003
0.11023
0.035611
-0.036825
-0.13264
-0.23903
-0.33363
-0.42284
-0.51591
-0.60666
-0.68304
-0.73534
-0.77056
-0.75372
-0.69535
-0.71695
-0.82405
-0.73534
-0.11554
1.0661
2.5998
4.3197
5.7568
5.8086
3.9317
1.1396
-1.1905
-2.5551
-3.0258
-2.9228
-2.6227
-2.1324
-1.3946
-0.79048
-0.63225
-0.66181
-0.57632
-0.49637
-0.58849
-0.68019
-0.5984
-0.47799
-0.46998
-0.49637
-0.45206
-0.40446
-0.42309
-0.44123
-0.38899
-0.29417
-0.21285
-0.18388
-0.20367
-0.20226
-0.12017
0.018321
0.14257
0.18376
0.12219
0.018321
-0.036156
0.018321
0.16973
0.34919
0.47124
0.42272
0.21745
0.18376
0.5232
0.86389
0.83269
0.62492
0.56056
0.68007
0.88278
0.99256
0.90338
0.80874
0.89293
0.99256
0.90965
0.69845
0.49786
0.42272
0.49675
0.53301
0.38241
0.22052
0.23305
0.31243
0.29316
0.14699
-0.061158
-0.1655
-0.069525
0.055084
0.027926
-0.073589
-0.11479
-0.055207
0.066511
0.055084
-0.1786
-0.27579
0.023154
0.31243
0.17707
-0.1655
-0.35719
-0.3677
-0.28762
-0.18388
-0.11542
-0.055207
0.03127
0.036702
-0.10961
-0.23903
-0.20767
-0.18388
-0.3257
-0.42284
-0.28268
-0.1655
-0.30493
-0.38608
-0.14871
-6.13e-05
-0.29424
-0.66181
-0.67004
-0.42284
-0.1994
-0.12873
-0.22333
-0.40446
-0.53495
-0.45961
-0.18279
-0.055207
-0.31658
-0.62505
-0.59999
-0.38608
-0.26294
-0.25741
-0.31429
-0.42284
-0.54067
-0.60666
-0.58335
-0.44123
-0.22006
-0.091971
-0.16798
-0.31255
-0.35637
-0.31255
-0.24933
-0.18388
-0.099022
0.073466
0.35131
0.60654
0.70618
0.58816
0.31037
0.18376
0.37584
0.40434
-0.094868
-0.51475
-0.29689
-6.13e-05
-0.24178
-0.62505
-0.64902
-0.62505
-0.88727
-1.0294
-0.72472
-0.40446
-0.50846
-0.80886
-0.86923
-0.47799
0.43556
1.6727
2.9234
4.3013
5.6134
5.441
3.0263
0.073466
-1.5547
-2.1507
-2.6062
-2.886
-2.7483
-2.1875
-1.3382
-0.66181
-0.52156
-0.64343
-0.64244
-0.5699
-0.57636
-0.55152
-0.40757
-0.31255
-0.39397
-0.51475
-0.50883
-0.40446
-0.29064
-0.22064
-0.20565
-0.14712
0.015537
0.091848
-0.054227
-0.1655
-0.011719
0.18376
0.17137
0.091848
0.13945
0.25729
0.33445
0.36758
0.38474
0.40434
0.4479
0.53301
0.65071
0.77198
0.86529
0.90065
0.88522
0.91903
1.0599
1.1764
1.1512
1.1029
1.1597
1.2315
1.201
1.1212
1.0676
0.97418
0.7939
0.69845
0.78847
0.77198
0.43249
0.12861
0.19313
0.33081
0.20153
-0.018443
-0.074964
-6.13e-05
0.085267
0.073466
-0.063795
-0.11035
0.081256
0.22052
0.046435
-0.18388
-0.17154
-0.055207
-0.043521
-0.055207
0.010444
0.036702
-0.068073
-0.18388
-0.18319
-0.091971
-0.0016796
-6.13e-05
-0.1129
-0.23903
-0.26989
-0.22064
-0.16059
-0.14712
-0.19817
-0.23903
-0.20515
-0.18388
-0.25504
-0.31255
-0.26015
-0.20226
-0.24566
-0.33094
-0.36256
-0.31255
-0.21314
-0.1655
-0.23893
-0.3677
-0.44769
-0.44123
-0.36513
-0.29417
-0.29095
-0.29417
-0.24727
-0.25741
-0.39655
-0.51475
-0.45997
-0.27579
-0.076793
0.073466
0.15218
0.18376
0.21687
0.25729
0.29983
0.38596
0.51974
0.58816
0.50694
0.34919
0.22196
0.12861
0.035051
-0.055207
-0.14647
-0.29417
-0.51341
-0.69857
-0.75538
-0.75372
-0.79035
-0.7721
-0.65355
-0.64343
-0.84973
-0.9743
-0.63937
0.2389
1.5424
3.0513
4.3839
5.1101
4.8959
3.4925
1.1248
-1.2133
-2.6134
-3.1066
-3.1008
-2.7206
-2.0614
-1.3603
-0.81442
-0.5699
-0.63533
-0.73534
-0.64454
-0.49637
-0.48337
-0.53314
-0.51757
-0.45961
-0.40963
-0.38608
-0.38587
-0.3677
-0.30273
-0.23903
-0.22524
-0.23903
-0.23338
-0.18388
-0.091442
0.018321
0.1083
0.14699
0.13583
0.12861
0.17377
0.25729
0.33967
0.40434
0.44954
0.47787
0.5021
0.5514
0.63186
0.69845
0.71356
0.69845
0.6965
0.7536
0.87178
0.9558
0.93234
0.88227
0.89727
0.93741
0.93423
0.88227
0.80171
0.73521
0.70281
0.62492
0.44779
0.29405
0.26734
0.25729
0.14461
-6.13e-05
-0.072201
-0.073589
-0.047782
-0.018443
-0.0060919
-0.036825
-0.10375
-0.12873
-0.064076
-6.13e-05
-0.02566
-0.073589
-0.064087
-0.055207
-0.10785
-0.1655
-0.16607
-0.12873
-0.097149
-0.11035
-0.17364
-0.20226
-0.13586
-0.091971
-0.17041
-0.22064
-0.11609
-0.055207
-0.2096
-0.3677
-0.31726
-0.22064
-0.26937
-0.3677
-0.37504
-0.31255
-0.25262
-0.23903
-0.2854
-0.3677
-0.43531
-0.42284
-0.32252
-0.25741
-0.32306
-0.42284
-0.43236
-0.3677
-0.28438
-0.20226
-0.12328
0.018321
0.24371
0.34919
0.2164
0.14699
0.39171
0.68007
0.69039
0.51463
0.35281
0.20214
0.030806
-0.073589
-0.073676
-0.12873
-0.3517
-0.5699
-0.60999
-0.60666
-0.71389
-0.80886
-0.77421
-0.69857
-0.71312
-0.82725
-0.93024
-0.82725
-0.28808
0.77198
2.2263
3.8969
5.3083
5.4226
3.7356
1.2315
-0.80792
-2.0588
-2.6813
-2.8125
-2.6254
-2.1875
-1.5472
-0.99268
-0.7507
-0.68019
-0.59075
-0.51475
-0.52795
-0.5699
-0.56555
-0.51475
-0.44352
-0.38608
-0.36429
-0.38608
-0.42517
-0.40446
-0.28629
-0.1655
-0.13522
-0.14712
-0.12286
-0.073589
-0.030797
0.018321
0.081612
0.12861
0.14101
0.14699
0.18074
0.25729
0.36406
0.4411
0.45238
0.47787
0.58332
0.68007
0.6811
0.66169
0.70995
0.79036
0.84099
0.86389
0.87721
0.88227
0.881
0.88227
0.88619
0.88227
0.85485
0.79036
0.6882
0.56978
0.45854
0.36758
0.29609
0.22052
0.12906
0.073466
0.086069
0.091848
0.024644
-0.055207
-0.075613
-0.055207
-0.040974
-0.055207
-0.09748
-0.12873
-0.1155
-0.091971
-0.09574
-0.091971
-0.049632
-0.018443
-0.044865
-0.091971
-0.11342
-0.12873
-0.16192
-0.18388
-0.16902
-0.14712
-0.15045
-0.1655
-0.17255
-0.18388
-0.20989
-0.23903
-0.2547
-0.23903
-0.19617
-0.18388
-0.23993
-0.31255
-0.34063
-0.33094
-0.3182
-0.33094
-0.37479
-0.40446
-0.37547
-0.31255
-0.25145
-0.1655
-0.038131
0.073466
0.12481
0.14699
0.19515
0.31243
0.49123
0.62492
0.62601
0.5514
0.48429
0.40434
0.27534
0.11023
-0.058869
-0.18388
-0.24731
-0.33094
-0.49711
-0.66181
-0.7307
-0.75372
-0.80543
-0.80886
-0.728
-0.71695
-0.85571
-0.91916
-0.60472
0.16538
1.3261
2.7756
4.1926
5.0182
4.7871
3.3271
0.97898
-1.3052
-2.6717
-3.0698
-2.8719
-2.3529
-1.7381
-1.2316
-0.90338
-0.69857
-0.5585
-0.51475
-0.59405
-0.68019
-0.66216
-0.55152
-0.4193
-0.3677
-0.43556
-0.51475
-0.48889
-0.38608
-0.28723
-0.23903
-0.24488
-0.23903
-0.16436
-0.073589
-0.033367
-0.018443
0.013598
0.055084
0.092408
0.12861
0.17297
0.25729
0.38665
0.47787
0.47293
0.45949
0.52753
0.62492
0.674
0.69845
0.73543
0.7536
0.73421
0.73521
0.8005
0.90065
0.97391
0.9558
0.83546
0.71683
0.69349
0.71683
0.70073
0.6433
0.56613
0.45949
0.32478
0.20214
0.12283
0.073466
0.030298
-6.13e-05
-0.010737
-0.018443
-0.040078
-0.073589
-0.10791
-0.12873
-0.12781
-0.11035
-0.089095
-0.073589
-0.068229
-0.073589
-0.08491
-0.091971
-0.089653
-0.091971
-0.11132
-0.12873
-0.12819
-0.14712
-0.2073
-0.23903
-0.19147
-0.14712
-0.18698
-0.25741
-0.28528
-0.29417
-0.32269
-0.34932
-0.34894
-0.34932
-0.37179
-0.3677
-0.30727
-0.27579
-0.33925
-0.40446
-0.37493
-0.31255
-0.29119
-0.25741
-0.15444
-0.018443
0.088329
0.12861
0.11033
0.091848
0.13929
0.29405
0.52168
0.66169
0.59551
0.42272
0.28567
0.14699
-0.047891
-0.18388
-0.18793
-0.23903
-0.47573
-0.71695
-0.76855
-0.73534
-0.76837
-0.80886
-0.79003
-0.75372
-0.76459
-0.82725
-0.8484
-0.64343
0.013946
1.1764
2.6769
4.4116
5.8865
5.6616
3.0787
-0.1655
-2.1328
-2.8125
-2.9346
-2.7206
-2.2773
-1.728
-1.1359
-0.73534
-0.68581
-0.75372
-0.69746
-0.60666
-0.62495
-0.66181
-0.60797
-0.53314
-0.5165
-0.53314
-0.53034
-0.49637
-0.43798
-0.3677
-0.305
-0.27579
-0.28243
-0.27579
-0.21683
-0.14712
-0.11149
-0.073589
0.0058818
0.091848
0.14393
0.18376
0.24004
0.29405
0.32995
0.38596
0.48751
0.58816
0.63949
0.66169
0.68868
0.71683
0.73505
0.7536
0.78099
0.80874
0.82725
0.84551
0.86697
0.86389
0.8155
0.7536
0.70707
0.6433
0.53335
0.42272
0.35412
0.29405
0.20352
0.11023
0.048294
-6.13e-05
-0.056126
-0.091971
-0.088861
-0.091971
-0.1385
-0.18388
-0.18227
-0.1655
-0.17306
-0.18388
-0.17047
-0.14712
-0.13444
-0.12873
-0.12298
-0.12873
-0.15125
-0.1655
-0.15325
-0.14712
-0.17587
-0.20226
-0.19401
-0.20226
-0.26744
-0.33094
-0.33004
-0.29417
-0.27264
-0.25741
-0.23714
-0.25741
-0.33943
-0.40446
-0.38686
-0.34932
-0.36404
-0.38608
-0.36099
-0.33094
-0.33514
-0.33094
-0.26971
-0.14712
0.0023184
0.11023
0.13974
0.12861
0.14892
0.27567
0.5027
0.66169
0.61035
0.42272
0.24093
0.091848
-0.036876
-0.11035
-0.13235
-0.22064
-0.44213
-0.66181
-0.74157
-0.75372
-0.80438
-0.84563
-0.82944
-0.79048
-0.79035
-0.84563
-0.88513
-0.75372
-0.22618
0.80874
2.2584
4.044
5.6632
5.6799
3.3849
0.31243
-1.7069
-2.5735
-2.8703
-2.7573
-2.3403
-1.7831
-1.1926
-0.7721
-0.65275
-0.68019
-0.67387
-0.64343
-0.64966
-0.64343
-0.57805
-0.51475
-0.50292
-0.49637
-0.444
-0.38608
-0.36904
-0.3677
-0.34489
-0.31255
-0.28607
-0.23903
-0.15688
-0.091971
-0.082778
-0.073589
-0.0081487
0.073466
0.12094
0.16538
0.24194
0.31243
0.3435
0.38596
0.48058
0.56978
0.59755
0.60654
0.65052
0.71683
0.77222
0.80874
0.82773
0.82712
0.81536
0.82712
0.87413
0.90065
0.85618
0.77198
0.69623
0.62492
0.54037
0.45949
0.39133
0.29405
0.14879
0.036702
0.021706
0.036702
0.0018554
-0.055207
-0.085201
-0.091971
-0.096605
-0.11035
-0.13643
-0.1655
-0.18166
-0.1655
-0.11918
-0.091971
-0.11991
-0.1655
-0.17901
-0.1655
-0.14762
-0.12873
-0.11145
-0.11035
-0.1322
-0.1655
-0.19477
-0.22064
-0.2466
-0.25741
-0.24707
-0.25741
-0.31209
-0.34932
-0.31784
-0.27579
-0.289
-0.33094
-0.35509
-0.3677
-0.38469
-0.38608
-0.35932
-0.34932
-0.37534
-0.34932
-0.20942
-0.036825
0.063143
0.073466
0.040991
0.036702
0.11845
0.29405
0.50467
0.62492
0.57142
0.40434
0.23178
0.073466
-0.077002
-0.1655
-0.18054
-0.25741
-0.48113
-0.69857
-0.75325
-0.73534
-0.7718
-0.80886
-0.78903
-0.75372
-0.77221
-0.86401
-0.95503
-0.86401
-0.35281
0.6433
2.0102
3.7498
5.4356
5.6064
3.4782
0.51463
-1.4913
-2.4081
-2.7628
-2.7022
-2.3341
-1.8015
-1.2021
-0.7721
-0.66585
-0.69857
-0.66064
-0.58828
-0.58005
-0.58828
-0.55301
-0.53314
-0.56754
-0.5699
-0.47153
-0.3677
-0.35328
-0.3677
-0.328
-0.25741
-0.2034
-0.1655
-0.13181
-0.11035
-0.098481
-0.055207
0.040045
0.12861
0.15982
0.18376
0.25796
0.34919
0.41271
0.47787
0.57075
0.6433
0.65659
0.66169
0.71071
0.77198
0.80269
0.82712
0.87064
0.90065
0.88812
0.86389
0.8608
0.86389
0.84682
0.80874
0.75391
0.68007
0.58641
0.47787
0.36334
0.25729
0.17099
0.11023
0.070969
0.036702
-0.004742
-0.036825
-0.045769
-0.055207
-0.086219
-0.11035
-0.10233
-0.091971
-0.10962
-0.12873
-0.12058
-0.11035
-0.12233
-0.12873
-0.10463
-0.073589
-0.066056
-0.091971
-0.14007
-0.1655
-0.14165
-0.12873
-0.17738
-0.22064
-0.19409
-0.1655
-0.20546
-0.25741
-0.25771
-0.25741
-0.30754
-0.34932
-0.32604
-0.29417
-0.31149
-0.33094
-0.30421
-0.27579
-0.29628
-0.34932
-0.39489
-0.40446
-0.36494
-0.29417
-0.21847
-0.12873
-0.022171
0.055084
0.079827
0.091848
0.14975
0.31243
0.561
0.71683
0.64208
0.4411
0.27629
0.14699
0.011685
-0.073589
-0.087266
-0.1655
-0.39535
-0.62505
-0.6985
-0.69857
-0.7444
-0.79048
-0.78265
-0.73534
-0.70684
-0.7721
-0.90906
-0.90077
-0.47094
0.42272
1.6647
3.2719
4.8933
5.3307
3.8576
1.397
-0.71528
-2.0588
-2.6943
-2.7022
-2.2998
-1.728
-1.1582
-0.7721
-0.64056
-0.62505
-0.58587
-0.55152
-0.58729
-0.62505
-0.59124
-0.53314
-0.50572
-0.47799
-0.4152
-0.38608
-0.43066
-0.42284
-0.27251
-0.12873
-0.13711
-0.20226
-0.19015
-0.12873
-0.08257
-0.036825
0.027214
0.073466
0.082293
0.11023
0.20346
0.31243
0.38022
0.4411
0.5312
0.60654
0.62669
0.62492
0.64843
0.71683
0.81759
0.90065
0.92625
0.91903
0.91947
0.93741
0.96047
0.9558
0.90274
0.84551
0.82005
0.77198
0.65133
0.51463
0.4238
0.34919
0.25279
0.16538
0.1207
0.11023
0.10549
0.073466
0.00097078
-0.073589
-0.10908
-0.11035
-0.10046
-0.091971
-0.088398
-0.073589
-0.038891
-0.018443
-0.039689
-0.073589
-0.083559
-0.073589
-0.061984
-0.055207
-0.056169
-0.073589
-0.10628
-0.12873
-0.12522
-0.12873
-0.16627
-0.20226
-0.19968
-0.18388
-0.18812
-0.20226
-0.20952
-0.22064
-0.24625
-0.27579
-0.29633
-0.31255
-0.32829
-0.33094
-0.31319
-0.29417
-0.29451
-0.31255
-0.33743
-0.3677
-0.39861
-0.40446
-0.37026
-0.33094
-0.31098
-0.25741
-0.13346
-6.13e-05
0.075707
0.091848
0.09449
0.16538
0.34117
0.53301
0.62903
0.60654
0.50014
0.34919
0.20048
0.091848
0.024398
-0.036825
-0.13151
-0.29417
-0.51
-0.66181
-0.66952
-0.66181
-0.75954
-0.80886
-0.68973
-0.58828
-0.68315
-0.82725
-0.77842
-0.44123
0.25055
1.2683
2.4779
3.9337
5.3104
5.2572
3.0441
0.055084
-1.9832
-2.8125
-2.8767
-2.5184
-2.0504
-1.5809
-1.0823
-0.71695
-0.61173
-0.60666
-0.54538
-0.49637
-0.55023
-0.60666
-0.56081
-0.49637
-0.49904
-0.49637
-0.41371
-0.33094
-0.3291
-0.34932
-0.31865
-0.27579
-0.26624
-0.23903
-0.15174
-0.073589
-0.064152
-0.055207
0.021137
0.11023
0.14844
0.16538
0.21023
0.29405
0.40135
0.49625
0.54954
0.56978
0.58403
0.62492
0.6996
0.7536
0.74576
0.73521
0.78118
0.84551
0.87288
0.86389
0.84022
0.82712
0.8309
0.80874
0.724
0.60654
0.50149
0.42272
0.36141
0.29405
0.20424
0.11023
0.038001
-6.13e-05
-0.011976
-0.036825
-0.098649
-0.14712
-0.13618
-0.11035
-0.11985
-0.12873
-0.10001
-0.073589
-0.089894
-0.12873
-0.15447
-0.14712
-0.11055
-0.091971
-0.12515
-0.1655
-0.16316
-0.14712
-0.15564
-0.1655
-0.15225
-0.14712
-0.17874
-0.22064
-0.24095
-0.25741
-0.28699
-0.29417
-0.25421
-0.22064
-0.24289
-0.27579
-0.27201
-0.29417
-0.38687
-0.44123
-0.37138
-0.29417
-0.32619
-0.38608
-0.37198
-0.33094
-0.33371
-0.3677
-0.39696
-0.40446
-0.38123
-0.33094
-0.26371
-0.18388
-0.098333
-6.13e-05
0.10849
0.14699
0.094298
0.14699
0.42817
0.69845
0.70667
0.53301
0.35372
0.20214
0.064849
-0.055207
-0.16551
-0.27579
-0.38498
-0.47799
-0.54449
-0.62505
-0.73779
-0.79048
-0.73401
-0.66181
-0.69479
-0.84563
-1.0154
-0.99268
-0.54944
0.29405
1.42
2.9594
4.6805
5.4042
4.3072
2.1139
0.0046712
-1.5809
-2.568
-2.8676
-2.589
-2.0404
-1.4942
-1.0662
-0.77127
-0.62505
-0.61329
-0.64343
-0.64426
-0.60666
-0.55638
-0.53314
-0.54729
-0.55152
-0.4992
-0.42284
-0.37171
-0.34932
-0.33701
-0.33094
-0.32106
-0.25741
-0.12884
-0.055207
-0.11524
-0.1655
-0.067897
0.073466
0.12584
0.14699
0.21893
0.29405
0.32064
0.34919
0.43064
0.53301
0.61186
0.68007
0.75427
0.80874
0.82343
0.82712
0.84997
0.88227
0.90375
0.91903
0.93151
0.91903
0.86791
0.80874
0.76722
0.71683
0.62988
0.53301
0.45601
0.38596
0.30376
0.22052
0.15041
0.091848
0.039809
-6.13e-05
-0.023286
-0.036825
-0.045223
-0.036825
-0.0097125
0.018321
0.020086
-0.036825
-0.14856
-0.23903
-0.23849
-0.1655
-0.077813
-6.13e-05
0.049764
0.018321
-0.098951
-0.18388
-0.14785
-0.073589
-0.069135
-0.12873
-0.19714
-0.22064
-0.17948
-0.14712
-0.1875
-0.23903
-0.22811
-0.18388
-0.16436
-0.18388
-0.23383
-0.31255
-0.3954
-0.40446
-0.30726
-0.22064
-0.24985
-0.31255
-0.3087
-0.31255
-0.39635
-0.45961
-0.41066
-0.33094
-0.32007
-0.34932
-0.36084
-0.3677
-0.38081
-0.34932
-0.24301
-0.11035
-0.013704
0.036702
0.067166
0.091848
0.13806
0.29405
0.56599
0.73521
0.63159
0.40434
0.25934
0.16538
0.040732
-0.055207
-0.080613
-0.14712
-0.33825
-0.55152
-0.66818
-0.73534
-0.81736
-0.84563
-0.7776
-0.68019
-0.65676
-0.75372
-0.90783
-0.91916
-0.52312
0.36758
1.6823
3.4374
5.2413
5.827
4.405
1.8749
-0.40338
-1.9485
-2.7557
-2.8676
-2.4971
-1.9118
-1.314
-0.88239
-0.68432
-0.62505
-0.59389
-0.5699
-0.57346
-0.5699
-0.53098
-0.49637
-0.49238
-0.47799
-0.41524
-0.34932
-0.32837
-0.33094
-0.32013
-0.29417
-0.25999
-0.22064
-0.1758
-0.11035
-0.020514
0.055084
0.0846
0.091848
0.1115
0.14699
0.19108
0.2389
0.28955
0.36758
0.48181
0.56978
0.58615
0.60654
0.69522
0.77198
0.75723
0.71683
0.73363
0.79036
0.84261
0.88227
0.90918
0.91903
0.90525
0.86389
0.79025
0.66169
0.48617
0.36758
0.37138
0.38596
0.29895
0.18376
0.13479
0.11023
0.047973
-0.036825
-0.10608
-0.12873
-0.098373
-0.055207
-0.045123
-0.073589
-0.11894
-0.14712
-0.13736
-0.11035
-0.095256
-0.091971
-0.088156
-0.073589
-0.047808
-0.036825
-0.059869
-0.091971
-0.10483
-0.11035
-0.12615
-0.14712
-0.16249
-0.1655
-0.15856
-0.1655
-0.19978
-0.23903
-0.25567
-0.23903
-0.20308
-0.20226
-0.26482
-0.33094
-0.33742
-0.29417
-0.24706
-0.25741
-0.34305
-0.40446
-0.35858
-0.29417
-0.31141
-0.34932
-0.33089
-0.31255
-0.35318
-0.38608
-0.34897
-0.31255
-0.33509
-0.33094
-0.22248
-0.055207
0.08228
0.11023
0.031133
-6.13e-05
0.14668
0.40434
0.62507
0.69845
0.59537
0.42272
0.30154
0.18376
0.0030212
-0.12873
-0.13597
-0.20226
-0.46641
-0.73534
-0.79911
-0.75372
-0.74993
-0.73534
-0.66011
-0.60666
-0.66871
-0.80886
-0.90638
-0.84563
-0.42721
0.53301
2.0367
4.0256
5.9477
6.3233
4.3307
1.2131
-1.2969
-2.6654
-3.0561
-2.7573
-2.181
-1.5993
-1.1055
-0.79048
-0.67434
-0.69857
-0.78517
-0.79048
-0.65367
-0.51475
-0.50756
-0.5699
-0.58524
-0.53314
-0.44531
-0.40446
-0.45373
-0.47799
-0.37427
-0.23903
-0.19249
-0.20226
-0.19721
-0.18388
-0.17713
-0.12873
-0.017686
0.055084
0.026366
0.036702
0.20445
0.40434
0.48835
0.49625
0.51968
0.58816
0.68933
0.77198
0.79081
0.77198
0.76511
0.79036
0.84382
0.90065
0.93486
0.9558
0.97587
0.97418
0.93215
0.86389
0.78843
0.71683
0.6428
0.53301
0.37105
0.20214
0.080492
0.018321
4.5961e-05
-6.13e-05
-0.0076905
-0.018443
-0.023351
-0.055207
-0.1288
-0.1655
-0.11501
-0.073589
-0.13073
-0.22064
-0.24963
-0.22064
-0.17291
-0.12873
-0.10555
-0.11035
-0.13347
-0.1655
-0.19222
-0.18388
-0.13235
-0.091971
-0.10835
-0.14712
-0.16783
-0.20226
-0.2861
-0.40446
-0.52259
